Timestamp,rectus femoris,biceps femoris,vastus internus,semitendinosus
5.599999999999999645e+00,7.723282834493774840e-02,5.704183682362178737e-02,2.298162161181937016e-02,1.810079405055246837e-02
5.600999999999999979e+00,7.700916558942437484e-02,5.733227611746470609e-02,2.309846827804737379e-02,1.808550137980974304e-02
5.602000000000000313e+00,7.679376145420893640e-02,5.763172208375421518e-02,2.321987254335398584e-02,1.807356097302540918e-02
5.602999999999999758e+00,7.658626510826338496e-02,5.793981617969352210e-02,2.334567558201997711e-02,1.806504969526972343e-02
5.604000000000000092e+00,7.638619251338345240e-02,5.825613793398450729e-02,2.347572923301303321e-02,1.806002903701321369e-02
5.605000000000000426e+00,7.619291805635358683e-02,5.858019318786672480e-02,2.360989099642646361e-02,1.805854747964050558e-02
5.605999999999999872e+00,7.600567743861777470e-02,5.891140274163023105e-02,2.374801343973046222e-02,1.806064585733457156e-02
5.607000000000000206e+00,7.582358188403771904e-02,5.924909561573540873e-02,2.388993947674773743e-02,1.806635986199323085e-02
5.607999999999999652e+00,7.564563894875171723e-02,5.959250561974552968e-02,2.403549796149221512e-02,1.807571906187472807e-02
5.608999999999999986e+00,7.547076923596217346e-02,5.994076713618602670e-02,2.418449170244907701e-02,1.808874778672306047e-02
5.610000000000000320e+00,7.529780581022021968e-02,6.029291232821340496e-02,2.433668690891442610e-02,1.810546628185423848e-02
5.610999999999999766e+00,7.512549267842556777e-02,6.064787099693948885e-02,2.449181242462967339e-02,1.812588408791940275e-02
5.612000000000000099e+00,7.495253457439235434e-02,6.100446856417209018e-02,2.464956166181327471e-02,1.814998870062225350e-02
5.613000000000000433e+00,7.477770283781642879e-02,6.136142320974527498e-02,2.480958954510507214e-02,1.817774267726565696e-02
5.613999999999999879e+00,7.459993378123180863e-02,6.171734992572313477e-02,2.497150965751628385e-02,1.820909165047713760e-02
5.615000000000000213e+00,7.441836948742192037e-02,6.207077374964505706e-02,2.513489997768991735e-02,1.824397063690564105e-02
5.615999999999999659e+00,7.423233578466401084e-02,6.242014997483692762e-02,2.529931911284931390e-02,1.828230202779550229e-02
5.616999999999999993e+00,7.404127944130087235e-02,6.276389736820406351e-02,2.546432185225588202e-02,1.832399648866589806e-02
5.618000000000000327e+00,7.384468870524132922e-02,6.310044806165530928e-02,2.562945820567519642e-02,1.836896245987723261e-02
5.618999999999999773e+00,7.364202989561344226e-02,6.342829840545823050e-02,2.579426302883481778e-02,1.841711130041619529e-02
5.620000000000000107e+00,7.343275978435938323e-02,6.374604455354478116e-02,2.595825878261053335e-02,1.846835700748628364e-02
5.621000000000000441e+00,7.321643373909096641e-02,6.405239951954420918e-02,2.612097350404234131e-02,1.852263042080573921e-02
5.621999999999999886e+00,7.299283496914867053e-02,6.434617861039312881e-02,2.628196375497845669e-02,1.857990527383532667e-02
5.623000000000000220e+00,7.276203564832560422e-02,6.462626180788400010e-02,2.644084969340453756e-02,1.864020724895567444e-02
5.623999999999999666e+00,7.252436796996007684e-02,6.489161964178104258e-02,2.659735489146087054e-02,1.870359836881908128e-02
5.625000000000000000e+00,7.228032287320411420e-02,6.514144398449102369e-02,2.675130839920253009e-02,1.877015138480415610e-02
5.626000000000000334e+00,7.203042489862807041e-02,6.537525238427295549e-02,2.690260087822884949e-02,1.883992657481151078e-02
5.626999999999999780e+00,7.177515008456822332e-02,6.559283321318361282e-02,2.705114383268685321e-02,1.891296077713598700e-02
5.628000000000000114e+00,7.151489922522666354e-02,6.579408549407121665e-02,2.719685733548711862e-02,1.898927152597284368e-02
5.628999999999999559e+00,7.125000027730754582e-02,6.597889999175481079e-02,2.733966376904530676e-02,1.906886546013935105e-02
5.629999999999999893e+00,7.098072411105486867e-02,6.614714062675018658e-02,2.747947851211176087e-02,1.915173989800499771e-02
5.631000000000000227e+00,7.070731169212275680e-02,6.629867131862811347e-02,2.761621060192336399e-02,1.923787973974786306e-02
5.631999999999999673e+00,7.043002248290139433e-02,6.643336367807151088e-02,2.774978788734502877e-02,1.932725466557868102e-02
5.633000000000000007e+00,7.014918952748694370e-02,6.655109929096965360e-02,2.788021694376121434e-02,1.941981916917332601e-02
5.634000000000000341e+00,6.986524239709605844e-02,6.665182955808247878e-02,2.800763976458218660e-02,1.951551942387400040e-02
5.634999999999999787e+00,6.957868648301376857e-02,6.673567176538920676e-02,2.813232419786528687e-02,1.961429987985728943e-02
5.636000000000000121e+00,6.929006108823045074e-02,6.680292197282790279e-02,2.825459636388633414e-02,1.971609750549128612e-02
5.636999999999999567e+00,6.899991078069683814e-02,6.685395256652382212e-02,2.837477716478692402e-02,1.982083035183932612e-02
5.637999999999999901e+00,6.870878414002487555e-02,6.688910728551070162e-02,2.849315334286257884e-02,1.992839489318040322e-02
5.639000000000000234e+00,6.841722321480932234e-02,6.690867308703460359e-02,2.860997165135243520e-02,2.003866955888954776e-02
5.639999999999999680e+00,6.812572949302125869e-02,6.691289047218827724e-02,2.872544216607009551e-02,2.015151413436330405e-02
5.641000000000000014e+00,6.783476776915979556e-02,6.690195522276506934e-02,2.883974836220133675e-02,2.026676891744714701e-02
5.642000000000000348e+00,6.754484174206647207e-02,6.687601287526041827e-02,2.895306175714889435e-02,2.038426160308282400e-02
5.642999999999999794e+00,6.725660224340053450e-02,6.683515544423905552e-02,2.906556402890894328e-02,2.050381399091474183e-02
5.644000000000000128e+00,6.697092405419194372e-02,6.677942728887317769e-02,2.917747347479536166e-02,2.062524003322446786e-02
5.644999999999999574e+00,6.668888358807444072e-02,6.670884662747257610e-02,2.928904963227766875e-02,2.074834381580850998e-02
5.645999999999999908e+00,6.641163972478729416e-02,6.662343730469165448e-02,2.940056569746403101e-02,2.087292492342127104e-02
5.647000000000000242e+00,6.614032365666600022e-02,6.652326210564579734e-02,2.951227679362162723e-02,2.099878104156628622e-02
5.647999999999999687e+00,6.587600717288942531e-02,6.640844646466095846e-02,2.962440796135600019e-02,2.112569777383873151e-02
5.649000000000000021e+00,6.561970679190545774e-02,6.627917366925892284e-02,2.973715529343839634e-02,2.125343608809770676e-02
5.650000000000000355e+00,6.537237962004573133e-02,6.613565572876974052e-02,2.985068950795663131e-02,2.138173168257392204e-02
5.650999999999999801e+00,6.513492372943846531e-02,6.597811540668456487e-02,2.996516017208513544e-02,2.151030195957018276e-02
5.652000000000000135e+00,6.490819533515237993e-02,6.580678900526162889e-02,3.008069294690709702e-02,2.163885108954947262e-02
5.652999999999999581e+00,6.469302728639830802e-02,6.562192225364051057e-02,3.019738151658234865e-02,2.176707253816265869e-02
5.653999999999999915e+00,6.449023420222470271e-02,6.542378687864883191e-02,3.031528972704704977e-02,2.189465250804447857e-02
5.655000000000000249e+00,6.430060875893736649e-02,6.521279419820430467e-02,3.043445946607547387e-02,2.202127969830661863e-02
5.655999999999999694e+00,6.412491592697973364e-02,6.498965411398960335e-02,3.055490907325670441e-02,2.214665699723399397e-02
5.657000000000000028e+00,6.396388508623201963e-02,6.475541029110033764e-02,3.067662594925973929e-02,2.227049899003050865e-02
5.658000000000000362e+00,6.381820082837860730e-02,6.451131480093205695e-02,3.079956067599246353e-02,2.239251333295629379e-02
5.658999999999999808e+00,6.368849357648653786e-02,6.425866964358151190e-02,3.092362366266787968e-02,2.251238179009409923e-02
5.660000000000000142e+00,6.357533403840795461e-02,6.399872846476185873e-02,3.104868844041059825e-02,2.262975162556616140e-02
5.660999999999999588e+00,6.347922876504735745e-02,6.373265646950670993e-02,3.117460480951902632e-02,2.274423381866790342e-02
5.661999999999999922e+00,6.340060537319854028e-02,6.346151954709215726e-02,3.130122106185245778e-02,2.285540197976796903e-02
5.663000000000000256e+00,6.333979972974258799e-02,6.318628614159423063e-02,3.142840705044429306e-02,2.296279614853603823e-02
5.663999999999999702e+00,6.329706982484337163e-02,6.290784040633698448e-02,3.155606082133242951e-02,2.306593809647309104e-02
5.665000000000000036e+00,6.327261863711129697e-02,6.262700360538599187e-02,3.168409242834318434e-02,2.316435375710630684e-02
5.666000000000000369e+00,6.326659340503491824e-02,6.234454944271945742e-02,3.181241015795701482e-02,2.325759080372771792e-02
5.666999999999999815e+00,6.327907637437396593e-02,6.206120757473702204e-02,3.194094172767729389e-02,2.334521941511469648e-02
5.668000000000000149e+00,6.331009613280778880e-02,6.177766751460948835e-02,3.206967454168654919e-02,2.342681517039554850e-02
5.668999999999999595e+00,6.335965039286549361e-02,6.149458977731218912e-02,3.219866397210875003e-02,2.350194055055117304e-02
5.669999999999999929e+00,6.342770473039882617e-02,6.121261841062749370e-02,3.232800025607013988e-02,2.357014106363715736e-02
5.671000000000000263e+00,6.351416343293742051e-02,6.093239315286735902e-02,3.245777125141972863e-02,2.363095904955575532e-02
5.671999999999999709e+00,6.361885710944215067e-02,6.065456629047801668e-02,3.258804596184819435e-02,2.368395841778240044e-02
5.673000000000000043e+00,6.374156387898527454e-02,6.037982522361524940e-02,3.271887057677799748e-02,2.372875255229238076e-02
5.674000000000000377e+00,6.388203352810248314e-02,6.010890407114011236e-02,3.285026127690027220e-02,2.376504730422384151e-02
5.674999999999999822e+00,6.403998978785332974e-02,5.984257110001361957e-02,3.298219862610193842e-02,2.379269579366242657e-02
5.676000000000000156e+00,6.421510809631654493e-02,5.958163253431410927e-02,3.311463589665043783e-02,2.381170642852862424e-02
5.676999999999999602e+00,6.440698766050591273e-02,5.932697521720133038e-02,3.324751489543593258e-02,2.382218040597427339e-02
5.677999999999999936e+00,6.461513289465939391e-02,5.907957627381801163e-02,3.338077612596725835e-02,2.382424481201657340e-02
5.679000000000000270e+00,6.483894190835085003e-02,5.884044643986859752e-02,3.351435736773272084e-02,2.381803595561511958e-02
5.679999999999999716e+00,6.507770983238649054e-02,5.861056552539736786e-02,3.364817903316334735e-02,2.380371625073365513e-02
5.681000000000000050e+00,6.533064977654040595e-02,5.839084136847599860e-02,3.378212567753711287e-02,2.378148763877328126e-02
5.682000000000000384e+00,6.559690643905873031e-02,5.818208823726962742e-02,3.391604281583976421e-02,2.375158415645650320e-02
5.682999999999999829e+00,6.587555850371040744e-02,5.798502393169632785e-02,3.404975202813052826e-02,2.371424543380934100e-02
5.684000000000000163e+00,6.616563940588311710e-02,5.780027315092746421e-02,3.418306630350002873e-02,2.366968956000981006e-02
5.684999999999999609e+00,6.646616117905475296e-02,5.762836757674125870e-02,3.431579807054587622e-02,2.361810396882724206e-02
5.685999999999999943e+00,6.677610175490725219e-02,5.746974605166514649e-02,3.444776285158220042e-02,2.355965278661891968e-02
5.687000000000000277e+00,6.709439360270783026e-02,5.732475406662965178e-02,3.457876994656204628e-02,2.349448703018137616e-02
5.687999999999999723e+00,6.741996197714283934e-02,5.719364067471120749e-02,3.470860313452887869e-02,2.342275671720619318e-02
5.689000000000000057e+00,6.775176294694344736e-02,5.707655545741134595e-02,3.483702283423491253e-02,2.334463279185026302e-02
5.690000000000000391e+00,6.808876590532667028e-02,5.697354774330668642e-02,3.496380544171842630e-02,2.326033042745259335e-02
5.690999999999999837e+00,6.842992389878659043e-02,5.688457055849632099e-02,3.508878355598897547e-02,2.317011587009362023e-02
5.692000000000000171e+00,6.877419433629773649e-02,5.680948644700713895e-02,3.521183946690242816e-02,2.307428808029845374e-02
5.692999999999999616e+00,6.912058708179021072e-02,5.674806650680443154e-02,3.533285874748120364e-02,2.297315056752437593e-02
5.693999999999999950e+00,6.946817279256267685e-02,5.669998515365059361e-02,3.545169455224224386e-02,2.286700745810279004e-02
5.695000000000000284e+00,6.981605287027423112e-02,5.666482122674527944e-02,3.556817173542609761e-02,2.275618745316104058e-02
5.695999999999999730e+00,7.016335675722727705e-02,5.664206562077039181e-02,3.568211973011491123e-02,2.264106379501487284e-02
5.697000000000000064e+00,7.050927947395589646e-02,5.663112825276644946e-02,3.579341106804125039e-02,2.252204873531466270e-02
5.698000000000000398e+00,7.085310894975142826e-02,5.663133837992192360e-02,3.590198584177650004e-02,2.239956496859642557e-02
5.698999999999999844e+00,7.119421702028484733e-02,5.664193613729139043e-02,3.600784547499021743e-02,2.227401340399933968e-02
5.700000000000000178e+00,7.153201344617325652e-02,5.666206142478466545e-02,3.611101822045911791e-02,2.214575708400808376e-02
5.700999999999999623e+00,7.186587457777264543e-02,5.669074838614197170e-02,3.621153150739761517e-02,2.201512190728248039e-02
5.701999999999999957e+00,7.219508216345388307e-02,5.672692568063809893e-02,3.630941706454178519e-02,2.188240276391664393e-02
5.703000000000000291e+00,7.251879461544552541e-02,5.676941767640733549e-02,3.640472326863832681e-02,2.174786609394475587e-02
5.703999999999999737e+00,7.283604827521460157e-02,5.681694422526054750e-02,3.649750735733843510e-02,2.161174950438831885e-02
5.705000000000000071e+00,7.314579008642048408e-02,5.686812121502305556e-02,3.658783093788488955e-02,2.147426530313633133e-02
5.706000000000000405e+00,7.344695384799267146e-02,5.692146640951217806e-02,3.667578169700402846e-02,2.133560564725726916e-02
5.706999999999999851e+00,7.373857580281323321e-02,5.697541003912142549e-02,3.676149979094970460e-02,2.119594248893736516e-02
5.708000000000000185e+00,7.401988844727727668e-02,5.702830113503320336e-02,3.684518437914850730e-02,2.105542710098527032e-02
5.708999999999999631e+00,7.429031702392303871e-02,5.707840331316425125e-02,3.692708383104019443e-02,2.091419411138310119e-02
5.709999999999999964e+00,7.454938772487716692e-02,5.712388790941941991e-02,3.700748514503474779e-02,2.077236443006424613e-02
5.711000000000000298e+00,7.479663275996217831e-02,5.716284014519859569e-02,3.708670507255187182e-02,2.063004339029311449e-02
5.711999999999999744e+00,7.503157065078783217e-02,5.719327643903302644e-02,3.716507213785795460e-02,2.048731716406115497e-02
5.713000000000000078e+00,7.525376549660506287e-02,5.721314958666989803e-02,3.724289862599336476e-02,2.034425529104104402e-02
5.714000000000000412e+00,7.546290572109984329e-02,5.722033542839154163e-02,3.732045515886383419e-02,2.020092231145965631e-02
5.714999999999999858e+00,7.565887929968785619e-02,5.721262832382942309e-02,3.739795734606532474e-02,2.005738445663106731e-02
5.716000000000000192e+00,7.584185271697503616e-02,5.718778003223815715e-02,3.747556393528933549e-02,1.991370156802621874e-02
5.716999999999999638e+00,7.601231054573233392e-02,5.714358986141687691e-02,3.755338126921101832e-02,1.976991471263519345e-02
5.717999999999999972e+00,7.617099802467672265e-02,5.707800269161993068e-02,3.763146469063805011e-02,1.962603893388483595e-02
5.719000000000000306e+00,7.631877915295399994e-02,5.698915478678206331e-02,3.770981222476901817e-02,1.948206432990132186e-02
5.719999999999999751e+00,7.645650253062045987e-02,5.687536372306968568e-02,3.778836173162380963e-02,1.933797293721052635e-02
5.721000000000000085e+00,7.658495768258263836e-02,5.673509247630375424e-02,3.786699671238367287e-02,1.919376846946323559e-02
5.722000000000000419e+00,7.670490725357066719e-02,5.656690149043386295e-02,3.794555453965785252e-02,1.904949467162300736e-02
5.722999999999999865e+00,7.681713583962737624e-02,5.636945023239788022e-02,3.802384248273497219e-02,1.890522803822894740e-02
5.724000000000000199e+00,7.692249446002051572e-02,5.614162202854108830e-02,3.810166279275787465e-02,1.876106333813513938e-02
5.724999999999999645e+00,7.702192790912658349e-02,5.588268562178636684e-02,3.817883196117832084e-02,1.861711064606403829e-02
5.725999999999999979e+00,7.711646814622942492e-02,5.559233306177082529e-02,3.825519194810186180e-02,1.847350321324062530e-02
5.727000000000000313e+00,7.720719628521199862e-02,5.527062138363585120e-02,3.833062817415829743e-02,1.833041123195136568e-02
5.727999999999999758e+00,7.729518405544859305e-02,5.491796794724296271e-02,3.840510077968632002e-02,1.818804983538399589e-02
5.729000000000000092e+00,7.738144587121369156e-02,5.453518556394205269e-02,3.847866927324000708e-02,1.804666869031937293e-02
5.730000000000000426e+00,7.746693194547105143e-02,5.412340932163403617e-02,3.855148029994482500e-02,1.790653013831894347e-02
5.730999999999999872e+00,7.755253932735954592e-02,5.368391948222576288e-02,3.862371893714409282e-02,1.776789153942947425e-02
5.732000000000000206e+00,7.763910749307478820e-02,5.321801740021406268e-02,3.869555286581351922e-02,1.763099595597010169e-02
5.732999999999999652e+00,7.772742308691003854e-02,5.272701776941168816e-02,3.876709346872145995e-02,1.749606885333932285e-02
5.733999999999999986e+00,7.781825226488339742e-02,5.221229248920205429e-02,3.883838069090895379e-02,1.736331702971979571e-02
5.735000000000000320e+00,7.791235080034916716e-02,5.167530158508736732e-02,3.890938419082605459e-02,1.723292555541455773e-02
5.735999999999999766e+00,7.801043477189477382e-02,5.111759141540888479e-02,3.898000615496981930e-02,1.710505579396238984e-02
5.737000000000000099e+00,7.811316643261165260e-02,5.054077355497361979e-02,3.905007925888207693e-02,1.697984720436209946e-02
5.738000000000000433e+00,7.822116354117726600e-02,4.994650647377837926e-02,3.911936798568308588e-02,1.685741722727527800e-02
5.738999999999999879e+00,7.833499326294940390e-02,4.933648835930921212e-02,3.918757665635106552e-02,1.673785697562362590e-02
5.740000000000000213e+00,7.845516453587667027e-02,4.871245594142162294e-02,3.925435399199972419e-02,1.662123124817289563e-02
5.740999999999999659e+00,7.858214341884994791e-02,4.807617824854523714e-02,3.931929877316355654e-02,1.650758933911018050e-02
5.741999999999999993e+00,7.871636387593380912e-02,4.742944214265737424e-02,3.938198998084674329e-02,1.639697618435012258e-02
5.743000000000000327e+00,7.885822391300133238e-02,4.677403726121584504e-02,3.944203644623820587e-02,1.628943108216662772e-02
5.743999999999999773e+00,7.900808952035696942e-02,4.611174491841038559e-02,3.949910009749226653e-02,1.618498009933589526e-02
5.745000000000000107e+00,7.916629073903745650e-02,4.544432874349186441e-02,3.955286885219017751e-02,1.608363478399436886e-02
5.746000000000000441e+00,7.933309773388702579e-02,4.477352375191573364e-02,3.960301149969825546e-02,1.598539944979239166e-02
5.746999999999999886e+00,7.950873453572433747e-02,4.410102173588342084e-02,3.964915526242586419e-02,1.589028132814340397e-02
5.748000000000000220e+00,7.969346523327573706e-02,4.342845686318601295e-02,3.969089543177317658e-02,1.579829609979012395e-02
5.748999999999999666e+00,7.988768281006704275e-02,4.275740301754727551e-02,3.972782719312466931e-02,1.570946687023842825e-02
5.750000000000000000e+00,8.009192080358010224e-02,4.208938367317383022e-02,3.975957831346452892e-02,1.562381965815533812e-02
5.751000000000000334e+00,8.030679187449842049e-02,4.142587644126276281e-02,3.978581923979399027e-02,1.554137651750802165e-02
5.751999999999999780e+00,8.053290463055721993e-02,4.076830306574859980e-02,3.980626172755170888e-02,1.546214974927240249e-02
5.753000000000000114e+00,8.077080641993666932e-02,4.011801944349985272e-02,3.982067215399866245e-02,1.538613967178337032e-02
5.753999999999999559e+00,8.102099325556434695e-02,3.947631868691145463e-02,3.982888553940640980e-02,1.531333217127037530e-02
5.754999999999999893e+00,8.128398067073401567e-02,3.884443831102356998e-02,3.983079169513865231e-02,1.524369636086744632e-02
5.756000000000000227e+00,8.156035212733338258e-02,3.822355982301875454e-02,3.982630105276908916e-02,1.517718485879309548e-02
5.756999999999999673e+00,8.185072521212266583e-02,3.761480585749246708e-02,3.981531983799033864e-02,1.511373687162663980e-02
5.758000000000000007e+00,8.215567436526002854e-02,3.701924087387565426e-02,3.979774149819610696e-02,1.505328723955523008e-02
5.759000000000000341e+00,8.247567187092338936e-02,3.643786940655442674e-02,3.977344013931972955e-02,1.499577907874908786e-02
5.759999999999999787e+00,8.281106833300150294e-02,3.587163100393783027e-02,3.974226462422559419e-02,1.494116990484616915e-02
5.761000000000000121e+00,8.316210985452643367e-02,3.532140125940393116e-02,3.970404144777472250e-02,1.488942911200618127e-02
5.761999999999999567e+00,8.352897479384313595e-02,3.478799843851525242e-02,3.965858075240756564e-02,1.484053205051482673e-02
5.762999999999999901e+00,8.391179453222417928e-02,3.427218532786636962e-02,3.960567172051558671e-02,1.479445500356789400e-02
5.764000000000000234e+00,8.431063407311523150e-02,3.377466630657175589e-02,3.954507420786577965e-02,1.475117436727141178e-02
5.764999999999999680e+00,8.472545413021755067e-02,3.329608588424529808e-02,3.947652217990364060e-02,1.471066512056152728e-02
5.766000000000000014e+00,8.515608876611356626e-02,3.283702739507959878e-02,3.939973053109283724e-02,1.467289232780675731e-02
5.767000000000000348e+00,8.560223766318204863e-02,3.239801019385833702e-02,3.931439579640448601e-02,1.463780303085646106e-02
5.767999999999999794e+00,8.606345835445419756e-02,3.197948855682991587e-02,3.922019469727301699e-02,1.460532560391115606e-02
5.769000000000000128e+00,8.653916370942703329e-02,3.158185348695615596e-02,3.911678900880215942e-02,1.457537312229930174e-02
5.769999999999999574e+00,8.702863835942772908e-02,3.120543672508773944e-02,3.900385601552759651e-02,1.454784874595104784e-02
5.770999999999999908e+00,8.753106648304076476e-02,3.085051710799848260e-02,3.888114692513802706e-02,1.452265382541790065e-02
5.772000000000000242e+00,8.804555029357785667e-02,3.051732576237520950e-02,3.874854177502506936e-02,1.449969569468194906e-02
5.772999999999999687e+00,8.857110820665110851e-02,3.020604729459238844e-02,3.860606832223989482e-02,1.447889044569663532e-02
5.774000000000000021e+00,8.910665029991388097e-02,2.991682093274677587e-02,3.845387345795864970e-02,1.446015757673938147e-02
5.775000000000000355e+00,8.965094984131746769e-02,2.964974474137589341e-02,3.829216181198938362e-02,1.444340930896069464e-02
5.775999999999999801e+00,9.020263859794966366e-02,2.940488257645475917e-02,3.812113445462087663e-02,1.442854396538328053e-02
5.777000000000000135e+00,9.076022539717595872e-02,2.918227203016971957e-02,3.794095902854138086e-02,1.441544645715857158e-02
5.777999999999999581e+00,9.132212570436092081e-02,2.898193017074296093e-02,3.775179134758338551e-02,1.440398970290416095e-02
5.778999999999999915e+00,9.188669187584999620e-02,2.880385463913323271e-02,3.755384755415334952e-02,1.439403355956343257e-02
5.780000000000000249e+00,9.245223091992786635e-02,2.864801838936945066e-02,3.734748403889736473e-02,1.438542219588062436e-02
5.780999999999999694e+00,9.301701570091727711e-02,2.851435925066621996e-02,3.713321869626160648e-02,1.437798669148200592e-02
5.782000000000000028e+00,9.357929609509638147e-02,2.840277016557320872e-02,3.691168149507115942e-02,1.437156255399468785e-02
5.783000000000000362e+00,9.413729279484929491e-02,2.831309693403324945e-02,3.668355160385733393e-02,1.436601145416873358e-02
5.783999999999999808e+00,9.468916664713587783e-02,2.824514550304646834e-02,3.644952480995751476e-02,1.436122640464713995e-02
5.785000000000000142e+00,9.523299023637492311e-02,2.819869159838913134e-02,3.621030179132631033e-02,1.435712681913676667e-02
5.785999999999999588e+00,9.576676841142869878e-02,2.817348466946790336e-02,3.596657315001740296e-02,1.435365662787710904e-02
5.786999999999999922e+00,9.628853427410596910e-02,2.816924668895797942e-02,3.571899946656020147e-02,1.435078199709352749e-02
5.788000000000000256e+00,9.679648758124821672e-02,2.818566984495021743e-02,3.546819872907608362e-02,1.434848755855368772e-02
5.788999999999999702e+00,9.728909378891456572e-02,2.822241603524785342e-02,3.521474361594433000e-02,1.434676831432142585e-02
5.790000000000000036e+00,9.776507092865491244e-02,2.827911599455931041e-02,3.495916182100806263e-02,1.434561509161096440e-02
5.791000000000000369e+00,9.822326815298618174e-02,2.835536378573829883e-02,3.470193428790022128e-02,1.434500650932288290e-02
5.791999999999999815e+00,9.866252918616950918e-02,2.845071069132484171e-02,3.444349679308517098e-02,1.434491225576987709e-02
5.793000000000000149e+00,9.908163923271406937e-02,2.856466435689639788e-02,3.418425156053474939e-02,1.434529500961608493e-02
5.793999999999999595e+00,9.947938323668920058e-02,2.869669182567623211e-02,3.392457630365461330e-02,1.434610704975351238e-02
5.794999999999999929e+00,9.985467544218332159e-02,2.884622059778546230e-02,3.366481844249541444e-02,1.434729352344594512e-02
5.796000000000000263e+00,1.002066655954688135e-01,2.901263442866187925e-02,3.340528950482486714e-02,1.434880733583928855e-02
5.796999999999999709e+00,1.005347340891848962e-01,2.919526988549707089e-02,3.314628023714667054e-02,1.435062079403595127e-02
5.798000000000000043e+00,1.008383860196093162e-01,2.939342215066361938e-02,3.288808886521670666e-02,1.435271955822742598e-02
5.799000000000000377e+00,1.011171246889777942e-01,2.960635841960732734e-02,3.263103047223468028e-02,1.435508630644026680e-02
5.799999999999999822e+00,1.013703616031685489e-01,2.983332860489802674e-02,3.237541618262280985e-02,1.435769232790274144e-02
5.801000000000000156e+00,1.015973695483582129e-01,3.007356567913139697e-02,3.212153196086128815e-02,1.436050069962912894e-02
5.801999999999999602e+00,1.017972840655543970e-01,3.032627541955506406e-02,3.186963694439938488e-02,1.436346969254633649e-02
5.802999999999999936e+00,1.019691809123405984e-01,3.059062353737255699e-02,3.161996815895388308e-02,1.436655142677131965e-02
5.804000000000000270e+00,1.021122156551248356e-01,3.086573221100788814e-02,3.137274795223187612e-02,1.436969355805305625e-02
5.804999999999999716e+00,1.022257452369294134e-01,3.115068670600551828e-02,3.112819697453925519e-02,1.437284560245823302e-02
5.806000000000000050e+00,1.023093611415400173e-01,3.144453973290818605e-02,3.088653495957946124e-02,1.437595802713985058e-02
5.807000000000000384e+00,1.023628197820440899e-01,3.174630904359269923e-02,3.064796734777512285e-02,1.437897170836518156e-02
5.807999999999999829e+00,1.023859062696516192e-01,3.205497854980939726e-02,3.041268288840472470e-02,1.438180958250383050e-02
5.809000000000000163e+00,1.023783134187405824e-01,3.236950593546201321e-02,3.018086367341072870e-02,1.438437684041574821e-02
5.809999999999999609e+00,1.023395937300097674e-01,3.268882458081375647e-02,2.995269107834678396e-02,1.438656968144264546e-02
5.810999999999999943e+00,1.022691588437441984e-01,3.301184029077337823e-02,2.972834832481405926e-02,1.438828680125397476e-02
5.812000000000000277e+00,1.021663026484332104e-01,3.333744643411108710e-02,2.950801712324348236e-02,1.438943020665308867e-02
5.812999999999999723e+00,1.020302754110125332e-01,3.366456068816357783e-02,2.929186331669004703e-02,1.438989592873812784e-02
5.814000000000000057e+00,1.018603908843696421e-01,3.399214831109514251e-02,2.908002659548235974e-02,1.438957063474580189e-02
5.815000000000000391e+00,1.016560981784876833e-01,3.431921291582803318e-02,2.887262014068230076e-02,1.438833707888372351e-02
5.815999999999999837e+00,1.014170195881136799e-01,3.464476903037310568e-02,2.866972740343336906e-02,1.438607848969955701e-02
5.817000000000000171e+00,1.011430128445149623e-01,3.496781245871721788e-02,2.847139677010924325e-02,1.438267894938337690e-02
5.817999999999999616e+00,1.008342319471985937e-01,3.528730664594367794e-02,2.827764121418079382e-02,1.437802579105093397e-02
5.818999999999999950e+00,1.004910787867399485e-01,3.560220082695018246e-02,2.808844109673935482e-02,1.437201854832930760e-02
5.820000000000000284e+00,1.001140776482009470e-01,3.591146823442009639e-02,2.790375431758408339e-02,1.436458355774869640e-02
5.820999999999999730e+00,9.970388691462558906e-02,3.621413942015061505e-02,2.772353749741251344e-02,1.435569084456105385e-02
5.822000000000000064e+00,9.926149730166389240e-02,3.650932120803396241e-02,2.754776465791314299e-02,1.434536324749011507e-02
5.823000000000000398e+00,9.878838898404168622e-02,3.679619263245968025e-02,2.737642578748848698e-02,1.433366809243393630e-02
5.823999999999999844e+00,9.828649107420633912e-02,3.707397878422610121e-02,2.720950392381602315e-02,1.432069808409137425e-02
5.825000000000000178e+00,9.775800413506904873e-02,3.734195623135967701e-02,2.704694967100951600e-02,1.430655771722560282e-02
5.825999999999999623e+00,9.720521024692592438e-02,3.759953405057366721e-02,2.688867062413851164e-02,1.429136473076519573e-02
5.826999999999999957e+00,9.663034680914397989e-02,3.784633620806325538e-02,2.673453215578522335e-02,1.427526223843708121e-02
5.828000000000000291e+00,9.603554380503520616e-02,3.808217134893211731e-02,2.658435979984308251e-02,1.425842464609071436e-02
5.828999999999999737e+00,9.542279511548254489e-02,3.830691268550308337e-02,2.643794720679534804e-02,1.424104503553972993e-02
5.830000000000000071e+00,9.479395140346770499e-02,3.852040732322800642e-02,2.629508272389443832e-02,1.422331327351841583e-02
5.831000000000000405e+00,9.415072852890829513e-02,3.872245849351612507e-02,2.615558618354077089e-02,1.420540202531925776e-02
5.831999999999999851e+00,9.349472225101383704e-02,3.891284116853387098e-02,2.601931925380711677e-02,1.418746481772173960e-02
5.833000000000000185e+00,9.282742702379299937e-02,3.909131969303468457e-02,2.588616339676554773e-02,1.416963896549410830e-02
5.833999999999999631e+00,9.215025535602466844e-02,3.925765725352660385e-02,2.575601025600981336e-02,1.415204578499617595e-02
5.834999999999999964e+00,9.146454220428719417e-02,3.941160893660862474e-02,2.562878300347508007e-02,1.413478812132058608e-02
5.836000000000000298e+00,9.077154768991600731e-02,3.955290137193822469e-02,2.550445413234041572e-02,1.411795036881109341e-02
5.836999999999999744e+00,9.007249438890102544e-02,3.968121420471442534e-02,2.538303558392474013e-02,1.410160082415502433e-02
5.838000000000000078e+00,8.936863000466324647e-02,3.979617324345837565e-02,2.526455101418455945e-02,1.408579138895688088e-02
5.839000000000000412e+00,8.866128005140871959e-02,3.989735195462568162e-02,2.514900779104805445e-02,1.407055628141636039e-02
5.839999999999999858e+00,8.795188039151445591e-02,3.998427382345570019e-02,2.503638577400615559e-02,1.405591627416915255e-02
5.841000000000000192e+00,8.724198358667106801e-02,4.005641803819917635e-02,2.492665912565883088e-02,1.404188620186634824e-02
5.841999999999999638e+00,8.653322981115488255e-02,4.011323740255904463e-02,2.481984307974719958e-02,1.402848041204228860e-02
5.842999999999999972e+00,8.582729162526697708e-02,4.015418922270057311e-02,2.471602603253671843e-02,1.401571686606147005e-02
5.844000000000000306e+00,8.512580330874358614e-02,4.017877252710495839e-02,2.461536025965743030e-02,1.400361762706998220e-02
5.844999999999999751e+00,8.443029358302073240e-02,4.018656436961102335e-02,2.451802476505024128e-02,1.399220235566934513e-02
5.846000000000000085e+00,8.374216626344191394e-02,4.017724016377734880e-02,2.442418890205956192e-02,1.398147954730358938e-02
5.847000000000000419e+00,8.306273270377854956e-02,4.015056506250871959e-02,2.433399272835241184e-02,1.397144211099240335e-02
5.847999999999999865e+00,8.239323165194176180e-02,4.010639045006387376e-02,2.424754293932003188e-02,1.396206935503169211e-02
5.849000000000000199e+00,8.173480367715865724e-02,4.004469933411435034e-02,2.416491600329300632e-02,1.395333682560917672e-02
5.849999999999999645e+00,8.108846403247862988e-02,3.996565447662441678e-02,2.408616193279684153e-02,1.394523002540152233e-02
5.850999999999999979e+00,8.045510410249279154e-02,3.986957550007017709e-02,2.401130713632153996e-02,1.393774809619080166e-02
5.852000000000000313e+00,7.983549729604581813e-02,3.975685987295590057e-02,2.394035783944067214e-02,1.393089252800230535e-02
5.852999999999999758e+00,7.923029109941433223e-02,3.962790570400535201e-02,2.387330595972451258e-02,1.392465335635128566e-02
5.854000000000000092e+00,7.863999437759962297e-02,3.948307464280655793e-02,2.381013454136158766e-02,1.391900364459930026e-02
5.855000000000000426e+00,7.806497510232712767e-02,3.932271139740405042e-02,2.375081361188786586e-02,1.391390090392274903e-02
5.855999999999999872e+00,7.750547366380822201e-02,3.914719414850821588e-02,2.369528700919515396e-02,1.390928871034220228e-02
5.857000000000000206e+00,7.696161957755019711e-02,3.895696687875885994e-02,2.364346334995138729e-02,1.390509584461293094e-02
5.857999999999999652e+00,7.643344824125337944e-02,3.875253533276747792e-02,2.359522048736522118e-02,1.390123893855535475e-02
5.858999999999999986e+00,7.592092439649016089e-02,3.853443663173055506e-02,2.355042177810045059e-02,1.389763548895436678e-02
5.860000000000000320e+00,7.542395219202353840e-02,3.830319987075935656e-02,2.350892831505297167e-02,1.389421955874677907e-02
5.860999999999999766e+00,7.494235672013195571e-02,3.805932599443987568e-02,2.347059368144735134e-02,1.389094433082755341e-02
5.862000000000000099e+00,7.447586333776193279e-02,3.780332130071206026e-02,2.343525102218960501e-02,1.388777385844561056e-02
5.863000000000000433e+00,7.402409555352115755e-02,3.753578383384610639e-02,2.340270496504098449e-02,1.388467784837903521e-02
5.863999999999999879e+00,7.358658899609916981e-02,3.725746452752427135e-02,2.337272792138315666e-02,1.388163047700374624e-02
5.865000000000000213e+00,7.316282046968990149e-02,3.696922713452120701e-02,2.334505976443231740e-02,1.387860837769083755e-02
5.865999999999999659e+00,7.275224585943113054e-02,3.667195597819335878e-02,2.331941017271937575e-02,1.387558662560670585e-02
5.866999999999999993e+00,7.235433981574330986e-02,3.636650639008257024e-02,2.329546344156417301e-02,1.387253320442575349e-02
5.868000000000000327e+00,7.196862753938450263e-02,3.605370947493426875e-02,2.327288900815982151e-02,1.386940589526030991e-02
5.868999999999999773e+00,7.159468023860243724e-02,3.573440425202809717e-02,2.325135626803371408e-02,1.386615496042462210e-02
5.870000000000000107e+00,7.123206662689483826e-02,3.540946610317966675e-02,2.323054745540124866e-02,1.386272791424408672e-02
5.871000000000000441e+00,7.088029884281515924e-02,3.507979489396979844e-02,2.321016467424886695e-02,1.385907075342295361e-02
5.871999999999999886e+00,7.053880987248846435e-02,3.474627920017847593e-02,2.318993511551617481e-02,1.385512601433517600e-02
5.873000000000000220e+00,7.020696394621035730e-02,3.440977931099693105e-02,2.316962352229444758e-02,1.385082991305866193e-02
5.873999999999999666e+00,6.988408119505930272e-02,3.407113094162667055e-02,2.314904874416252520e-02,1.384610905416754599e-02
5.875000000000000000e+00,6.956947247723323235e-02,3.373115333622633133e-02,2.312808641446809435e-02,1.384087751874941985e-02
5.876000000000000334e+00,6.926249865066461120e-02,3.339065283081964208e-02,2.310664969189232462e-02,1.383503434873965821e-02
5.876999999999999780e+00,6.896263102348822172e-02,3.305041831636393312e-02,2.308466744128308268e-02,1.382846234523751709e-02
5.878000000000000114e+00,6.866945443246798286e-02,3.271121272569410543e-02,2.306207800204407993e-02,1.382103061841593455e-02
5.878999999999999559e+00,6.838260831723659561e-02,3.237376495441867535e-02,2.303882673599806988e-02,1.381260195470504666e-02
5.879999999999999893e+00,6.810172423902484395e-02,3.203876276594370964e-02,2.301485902145575246e-02,1.380304175201682582e-02
5.881000000000000227e+00,6.782640374541330786e-02,3.170684795799769140e-02,2.299012148443897036e-02,1.379222361706201189e-02
5.881999999999999673e+00,6.755623433104808451e-02,3.137861464379580051e-02,2.296457386779595863e-02,1.378003321631927729e-02
5.883000000000000007e+00,6.729084485724538822e-02,3.105461364596390217e-02,2.293819772122592318e-02,1.376636872070298966e-02
5.884000000000000341e+00,6.703000381351775783e-02,3.073536490567354423e-02,2.291098878804067804e-02,1.375113122794829022e-02
5.884999999999999787e+00,6.677369123518459015e-02,3.042137018725996761e-02,2.288293815828695496e-02,1.373421364823572584e-02
5.886000000000000121e+00,6.652205888341755635e-02,3.011311908501058954e-02,2.285402419757242079e-02,1.371550397133884831e-02
5.886999999999999567e+00,6.627530677355349120e-02,2.981109013709553474e-02,2.282421917029741829e-02,1.369490061492505302e-02
5.887999999999999901e+00,6.603359615777043556e-02,2.951574838980263599e-02,2.279349351928681988e-02,1.367231914434917373e-02
5.889000000000000234e+00,6.579705753418549352e-02,2.922753788009012713e-02,2.276181739427270492e-02,1.364768261078596993e-02
5.889999999999999680e+00,6.556581994517113321e-02,2.894687081560465627e-02,2.272916786079294885e-02,1.362091416982181592e-02
5.891000000000000014e+00,6.533999615590907473e-02,2.867411768105490588e-02,2.269552785786729115e-02,1.359194340592208804e-02
5.892000000000000348e+00,6.511967082853323263e-02,2.840960147842047298e-02,2.266086863991025047e-02,1.356071324204254948e-02
5.892999999999999794e+00,6.490492910272914473e-02,2.815359725295948218e-02,2.262513710876002532e-02,1.352717466300702893e-02
5.894000000000000128e+00,6.469587704449830667e-02,2.790633550237462540e-02,2.258825883818714464e-02,1.349127758624682483e-02
5.894999999999999574e+00,6.449262084861556721e-02,2.766800930163180322e-02,2.255014045770063758e-02,1.345297441485867815e-02
5.895999999999999908e+00,6.429523855186532189e-02,2.743878798745448891e-02,2.251066205634034978e-02,1.341223678092591000e-02
5.897000000000000242e+00,6.410379303437188647e-02,2.721883453010940854e-02,2.246966944226050020e-02,1.336907262008508838e-02
5.897999999999999687e+00,6.391840204975160478e-02,2.700831205984398006e-02,2.242697529172561072e-02,1.332353285788173691e-02
5.899000000000000021e+00,6.373931519097740528e-02,2.680737306909320924e-02,2.238236738523528141e-02,1.327570408617974144e-02
5.900000000000000355e+00,6.356693655885063687e-02,2.661615199827620584e-02,2.233561882313209179e-02,1.322569523000929198e-02
5.900999999999999801e+00,6.340183432320109502e-02,2.643477982624396067e-02,2.228649378995360350e-02,1.317363333173343816e-02
5.902000000000000135e+00,6.324479262335326590e-02,2.626340496754768494e-02,2.223474525729265960e-02,1.311966724666484632e-02
5.902999999999999581e+00,6.309683584887795793e-02,2.610219484445734303e-02,2.218011193496207192e-02,1.306396449228548751e-02
5.903999999999999915e+00,6.295916105162986665e-02,2.595131752964605423e-02,2.212232375459540282e-02,1.300670231866480654e-02
5.905000000000000249e+00,6.283303006136153890e-02,2.581092474154535882e-02,2.206112398893730203e-02,1.294806153797263375e-02
5.905999999999999694e+00,6.271968595637028576e-02,2.568115304074148481e-02,2.199631106203082248e-02,1.288821988548239685e-02
5.907000000000000028e+00,6.262031013490471087e-02,2.556213635055756481e-02,2.192777423979523979e-02,1.282734332403675029e-02
5.908000000000000362e+00,6.253600789648046387e-02,2.545401110324857150e-02,2.185548990006480966e-02,1.276558133570313523e-02
5.908999999999999808e+00,6.246780230084774538e-02,2.535690753261550870e-02,2.177949423581799701e-02,1.270306742777328572e-02
5.910000000000000142e+00,6.241663267374816804e-02,2.527093494446130961e-02,2.169987482793700115e-02,1.263992146877737817e-02
5.910999999999999588e+00,6.238336239395636529e-02,2.519617669725992756e-02,2.161677895003047759e-02,1.257625742264937251e-02
5.911999999999999922e+00,6.236878266545015093e-02,2.513270595068120214e-02,2.153040482516804799e-02,1.251219921631865906e-02
5.913000000000000256e+00,6.237360642861768806e-02,2.508060730608509259e-02,2.144097706785616508e-02,1.244789060582262609e-02
5.913999999999999702e+00,6.239846559759554268e-02,2.503997854851543886e-02,2.134873384517047695e-02,1.238348679112709176e-02
5.915000000000000036e+00,6.244390829429533052e-02,2.501091296464880848e-02,2.125392445398225499e-02,1.231913884287282220e-02
5.916000000000000369e+00,6.251038763120746189e-02,2.499348055162808543e-02,2.115680488894009989e-02,1.225498480130637544e-02
5.916999999999999815e+00,6.259825575414899868e-02,2.498771645554400539e-02,2.105764126204060296e-02,1.219114718813560025e-02
5.918000000000000149e+00,6.270777331200705351e-02,2.499361647043389298e-02,2.095672036364834220e-02,1.212773510583663519e-02
5.918999999999999595e+00,6.283912817545095342e-02,2.501113884564095183e-02,2.085435028549901745e-02,1.206485038878662638e-02
5.919999999999999929e+00,6.299246238841807455e-02,2.504020922542474561e-02,2.075085088858442603e-02,1.200259219160259953e-02
5.921000000000000263e+00,6.316789626497497367e-02,2.508072224456729671e-02,2.064654086935080457e-02,1.194105667873381592e-02
5.921999999999999709e+00,6.336552352702802537e-02,2.513253732536394058e-02,2.054172226203803200e-02,1.188033598174817289e-02
5.923000000000000043e+00,6.358538399007374053e-02,2.519547435896304227e-02,2.043667031130235942e-02,1.182051985258095010e-02
5.924000000000000377e+00,6.382744608097919159e-02,2.526931460279701822e-02,2.033163475148761640e-02,1.176169658258871369e-02
5.924999999999999822e+00,6.409160488001028333e-02,2.535381045153091081e-02,2.022684328334688891e-02,1.170394860254536651e-02
5.926000000000000156e+00,6.437767798344563863e-02,2.544870844293151482e-02,2.012249984197790262e-02,1.164734480665769421e-02
5.926999999999999602e+00,6.468539810086838815e-02,2.555377594633984409e-02,2.001878541461727876e-02,1.159193634766868264e-02
5.927999999999999936e+00,6.501442381161023909e-02,2.566880882283610610e-02,1.991586529310061457e-02,1.153775931489264481e-02
5.929000000000000270e+00,6.536436550860701133e-02,2.579361751610791467e-02,1.981389211037430653e-02,1.148484200677722493e-02
5.929999999999999716e+00,6.573478542347960252e-02,2.592801041863258479e-02,1.971300347623212990e-02,1.143321286328100733e-02
5.931000000000000050e+00,6.612516486709255070e-02,2.607178044101833916e-02,1.961332588847970043e-02,1.138290488541147602e-02
5.932000000000000384e+00,6.653488300592050320e-02,2.622469170784079429e-02,1.951498574971359187e-02,1.133395696608852435e-02
5.932999999999999829e+00,6.696322006371732694e-02,2.638647477447846057e-02,1.941811657987579931e-02,1.128641639911847488e-02
5.934000000000000163e+00,6.740936148877321732e-02,2.655683570322842427e-02,1.932285465849107459e-02,1.124033770507831299e-02
5.934999999999999609e+00,6.787239776105878641e-02,2.673546838310709647e-02,1.922932877686871211e-02,1.119577380043422499e-02
5.935999999999999943e+00,6.835132095036347555e-02,2.692205781201241488e-02,1.913765548625650376e-02,1.115276988456522130e-02
5.937000000000000277e+00,6.884501399772298413e-02,2.711627186190809780e-02,1.904793929832879207e-02,1.111136852696482762e-02
5.937999999999999723e+00,6.935224647178341029e-02,2.731774672630928394e-02,1.896027225638830319e-02,1.107162053507606062e-02
5.939000000000000057e+00,6.987170000703492312e-02,2.752607583033194610e-02,1.887473669952957969e-02,1.103358867054099121e-02
5.940000000000000391e+00,7.040201902693433988e-02,2.774081136205757900e-02,1.879141779809957377e-02,1.099733854081956508e-02
5.940999999999999837e+00,7.094187337865492937e-02,2.796147612221012643e-02,1.871042049140437397e-02,1.096292661869747477e-02
5.942000000000000171e+00,7.149004441751767580e-02,2.818757064167941306e-02,1.863187252042492609e-02,1.093039729600465450e-02
5.942999999999999616e+00,7.204551589105051557e-02,2.841856878514805937e-02,1.855590657064131593e-02,1.089978814000113622e-02
5.943999999999999950e+00,7.260750510879836195e-02,2.865391537373824724e-02,1.848263933687972066e-02,1.087113372977561825e-02
5.945000000000000284e+00,7.317540240148227848e-02,2.889303226543139466e-02,1.841216333694319432e-02,1.084446343415942926e-02
5.945999999999999730e+00,7.374866005787092393e-02,2.913531932279347578e-02,1.834454682206707390e-02,1.081980139649446095e-02
5.947000000000000064e+00,7.432672830206647763e-02,2.938014981410620730e-02,1.827983262643499349e-02,1.079717792617057928e-02
5.948000000000000398e+00,7.490909646672973266e-02,2.962687475481290411e-02,1.821803828749087029e-02,1.077664449187650322e-02
5.948999999999999844e+00,7.549538059034201221e-02,2.987483084122911220e-02,1.815916421480768400e-02,1.075827582671404041e-02
5.950000000000000178e+00,7.608537549316243820e-02,3.012333502997219595e-02,1.810320515162559471e-02,1.074215649527071777e-02
5.950999999999999623e+00,7.667904971505645761e-02,3.037166810699754027e-02,1.805015321312501003e-02,1.072836482427306885e-02
5.951999999999999957e+00,7.727649267901774699e-02,3.061906242190778893e-02,1.799999436139004469e-02,1.071696717510378129e-02
5.953000000000000291e+00,7.787783900684687455e-02,3.086470131091311256e-02,1.795271334080160430e-02,1.070802215844343652e-02
5.953999999999999737e+00,7.848319284668003881e-02,3.110773419313004468e-02,1.790830606270122499e-02,1.070158252951787514e-02
5.955000000000000071e+00,7.909256462879990512e-02,3.134731295540521545e-02,1.786677838454860459e-02,1.069769031194746367e-02
5.956000000000000405e+00,7.970583509375184228e-02,3.158264417515248279e-02,1.782812883757558392e-02,1.069637379411549592e-02
5.956999999999999851e+00,8.032275395068985691e-02,3.181303917026143124e-02,1.779233546500493326e-02,1.069764876353811005e-02
5.958000000000000185e+00,8.094297462250790720e-02,3.203793240257003794e-02,1.775935315560882993e-02,1.070152054607794757e-02
5.958999999999999631e+00,8.156609289223015757e-02,3.225685008969778750e-02,1.772911593190883150e-02,1.070798844822708207e-02
5.959999999999999964e+00,8.219163625551775820e-02,3.246937588467805474e-02,1.770154577371444923e-02,1.071704938100662662e-02
5.961000000000000298e+00,8.281903358445104335e-02,3.267517126765853708e-02,1.767656296112476294e-02,1.072869524565520268e-02
5.961999999999999744e+00,8.344763329906185190e-02,3.287401741545595280e-02,1.765408494089426225e-02,1.074291061501002689e-02
5.963000000000000078e+00,8.407673595163882296e-02,3.306581084228123885e-02,1.763401923224624732e-02,1.075967765682718340e-02
5.964000000000000412e+00,8.470557787083345114e-02,3.325052217616317890e-02,1.761626939354883972e-02,1.077898132952242842e-02
5.964999999999999858e+00,8.533330359215939021e-02,3.342820015131782452e-02,1.760074998704812613e-02,1.080080868194990308e-02
5.966000000000000192e+00,8.595898402489704493e-02,3.359904573822836138e-02,1.758738599319990478e-02,1.082514728326494473e-02
5.966999999999999638e+00,8.658167205480768458e-02,3.376345636511261100e-02,1.757609560685353955e-02,1.085198653036062270e-02
5.967999999999999972e+00,8.720046248069300565e-02,3.392197251818000053e-02,1.756678061054109743e-02,1.088132043025728454e-02
5.969000000000000306e+00,8.781452703604061827e-02,3.407518931334874851e-02,1.755933327010365461e-02,1.091314868476242483e-02
5.969999999999999751e+00,8.842312098488018524e-02,3.422369927145808149e-02,1.755364675656870266e-02,1.094747337609463037e-02
5.971000000000000085e+00,8.902557006686324936e-02,3.436806775531160013e-02,1.754961364512406044e-02,1.098429388640895753e-02
5.972000000000000419e+00,8.962122114634031578e-02,3.450882855049427350e-02,1.754711198987704557e-02,1.102360551730415146e-02
5.972999999999999865e+00,9.020937858962384259e-02,3.464649414101503289e-02,1.754599838756763786e-02,1.106540382135853470e-02
5.974000000000000199e+00,9.078932888926243006e-02,3.478157630794313088e-02,1.754612051794007116e-02,1.110968877883659195e-02
5.974999999999999645e+00,9.136049886317557100e-02,3.491460826045279103e-02,1.754734177097390380e-02,1.115645991281714010e-02
5.975999999999999979e+00,9.192264279492728951e-02,3.504615172351950581e-02,1.754956707578344058e-02,1.120570542047251428e-02
5.977000000000000313e+00,9.247592478799240845e-02,3.517678372427653077e-02,1.755275739996738082e-02,1.125739772214285304e-02
5.977999999999999758e+00,9.302085101262830280e-02,3.530708000976622712e-02,1.755692291195275548e-02,1.131149820768572942e-02
5.979000000000000092e+00,9.355810355297258796e-02,3.543761276387569215e-02,1.756210076000044862e-02,1.136796227863520747e-02
5.980000000000000426e+00,9.408837394850728952e-02,3.556896359631155774e-02,1.756833367548604058e-02,1.142673789350551715e-02
5.980999999999999872e+00,9.461226053868569685e-02,3.570173705659163144e-02,1.757566255401606797e-02,1.148776094131043549e-02
5.982000000000000206e+00,9.513024863666971753e-02,3.583656099015264385e-02,1.758413376860780072e-02,1.155095526665494803e-02
5.982999999999999652e+00,9.564276263359687558e-02,3.597407507114795677e-02,1.759380791179787629e-02,1.161624193734984642e-02
5.983999999999999986e+00,9.615023807302457148e-02,3.611491294316607897e-02,1.760475673883486747e-02,1.168355308416508739e-02
5.985000000000000320e+00,9.665315023170278907e-02,3.625968509464237016e-02,1.761704838805247184e-02,1.175283519027812279e-02
5.985999999999999766e+00,9.715197422020542539e-02,3.640897637480557808e-02,1.763073272364797800e-02,1.182403951130935223e-02
5.987000000000000099e+00,9.764712833386217372e-02,3.656335457020293278e-02,1.764583702807137611e-02,1.189711607320899193e-02
5.988000000000000433e+00,9.813897386433939607e-02,3.672336795481465771e-02,1.766236953047876229e-02,1.197201442139067193e-02
5.988999999999999879e+00,9.862784737280094749e-02,3.688953334035889597e-02,1.768032433638149631e-02,1.204868001539007201e-02
5.990000000000000213e+00,9.911404323404285344e-02,3.706233415311466217e-02,1.769968753751509014e-02,1.212704615174944184e-02
5.990999999999999659e+00,9.959774344539566726e-02,3.724222566941184226e-02,1.772044094375479703e-02,1.220702929191530388e-02
5.991999999999999993e+00,1.000789639078344118e-01,3.742963445262013217e-02,1.774255701294262175e-02,1.228852912681129179e-02
5.993000000000000327e+00,1.005575426620593099e-01,3.762495340638920965e-02,1.776598979478146920e-02,1.237143183774425115e-02
5.993999999999999773e+00,1.010331387279596455e-01,3.782853573296365152e-02,1.779066994889867345e-02,1.245561683652238703e-02
5.995000000000000107e+00,1.015052296494660805e-01,3.804069019714305389e-02,1.781650405272621265e-02,1.254096305722975611e-02
5.996000000000000441e+00,1.019731183465645147e-01,3.826168622705437838e-02,1.784337544608765105e-02,1.262734954940726573e-02
5.996999999999999886e+00,1.024359418847743536e-01,3.849176416775217102e-02,1.787114537269697545e-02,1.271465105148872170e-02
5.998000000000000220e+00,1.028926674732983521e-01,3.873113108698045953e-02,1.789965912562958839e-02,1.280273271767299638e-02
5.998999999999999666e+00,1.033420815584167596e-01,3.897994331510561128e-02,1.792875686491216328e-02,1.289144927250305238e-02
6.000000000000000000e+00,1.037827926268037326e-01,3.923829904986407546e-02,1.795827455976011303e-02,1.298065245447795578e-02
6.001000000000000334e+00,1.042132563532710138e-01,3.950624513729546206e-02,1.798803266973536888e-02,1.307020136568762952e-02
6.001999999999999780e+00,1.046318127254865643e-01,3.978378305135388954e-02,1.801782868278113681e-02,1.315996285066087582e-02
6.003000000000000114e+00,1.050367238083315807e-01,4.007087705979917730e-02,1.804743811045400256e-02,1.324980045301193607e-02
6.003999999999999559e+00,1.054262056588248370e-01,4.036748730564087423e-02,1.807662067536951536e-02,1.333956630238880732e-02
6.004999999999999893e+00,1.057984617673092820e-01,4.067364838837913416e-02,1.810514201622178895e-02,1.342910679207172907e-02
6.006000000000000227e+00,1.061517308481490368e-01,4.098956505132053674e-02,1.813280907771801231e-02,1.351827735333917778e-02
6.006999999999999673e+00,1.064843142656540925e-01,4.131563748800838598e-02,1.815948516377680066e-02,1.360694709988475269e-02
6.008000000000000007e+00,1.067945346689940650e-01,4.165238534424055283e-02,1.818507019946093844e-02,1.369498461647633038e-02
6.009000000000000341e+00,1.070806556238183688e-01,4.200034624663568500e-02,1.820948059921669374e-02,1.378224262356491682e-02
6.009999999999999787e+00,1.073408450904771855e-01,4.236001752638175050e-02,1.823265072014411056e-02,1.386855601613575829e-02
6.011000000000000121e+00,1.075732179770042818e-01,4.273183899000272679e-02,1.825453607678755724e-02,1.395375146939164222e-02
6.011999999999999567e+00,1.077759015202746501e-01,4.311619342840438546e-02,1.827510465280160826e-02,1.403765892593814360e-02
6.012999999999999901e+00,1.079470504810886855e-01,4.351341582133323033e-02,1.829432933893301166e-02,1.412011304154550326e-02
6.014000000000000234e+00,1.080848073709549800e-01,4.392380352823074124e-02,1.831219715974627751e-02,1.420094830616417704e-02
6.014999999999999680e+00,1.081872624765096574e-01,4.434761592777965167e-02,1.832872467019971280e-02,1.428000044666278417e-02
6.016000000000000014e+00,1.082524873103408308e-01,4.478506206746175194e-02,1.834395193499889845e-02,1.435711415951779375e-02
6.017000000000000348e+00,1.082786661666398642e-01,4.523629057804667147e-02,1.835791826233850593e-02,1.443214968913793077e-02
6.017999999999999794e+00,1.082642739506019663e-01,4.570139338979807564e-02,1.837064731660776121e-02,1.450498198981899599e-02
6.019000000000000128e+00,1.082082368767456615e-01,4.618041627845789754e-02,1.838214921776760297e-02,1.457549592148778272e-02
6.019999999999999574e+00,1.081100084905947528e-01,4.667336374939519417e-02,1.839242488485379537e-02,1.464359041439850656e-02
6.020999999999999908e+00,1.079694786606634344e-01,4.718019335487686622e-02,1.840145998967950697e-02,1.470919151990140138e-02
6.022000000000000242e+00,1.077867492305431829e-01,4.770080964447839800e-02,1.840921871329578505e-02,1.477225879993141790e-02
6.022999999999999687e+00,1.075619768123217135e-01,4.823507570839312419e-02,1.841565705645661910e-02,1.483277688461908522e-02
6.024000000000000021e+00,1.072954000201793850e-01,4.878283174594369442e-02,1.842074538948429777e-02,1.489073925375516624e-02
6.025000000000000355e+00,1.069874358723525570e-01,4.934389363387428618e-02,1.842447071248830975e-02,1.494613525446366817e-02
6.025999999999999801e+00,1.066387086781836746e-01,4.991803847552608864e-02,1.842681876441362027e-02,1.499894721535499457e-02
6.027000000000000135e+00,1.062499995859524649e-01,5.050499503009105162e-02,1.842776064722311674e-02,1.504915914238176555e-02
6.027999999999999581e+00,1.058221530409187150e-01,5.110443165403941862e-02,1.842725458619078743e-02,1.509677241594206860e-02
6.028999999999999915e+00,1.053559723515384572e-01,5.171593792295088587e-02,1.842525229842290752e-02,1.514182023662868568e-02
6.030000000000000249e+00,1.048521413543940933e-01,5.233901180670078035e-02,1.842170129668207340e-02,1.518437353344832992e-02
6.030999999999999694e+00,1.043112041277586971e-01,5.297305601747912679e-02,1.841654979720264845e-02,1.522453749834359708e-02
6.032000000000000028e+00,1.037336086106935007e-01,5.361737943255954347e-02,1.840975417152177634e-02,1.526244129802496914e-02
6.033000000000000362e+00,1.031197972299210674e-01,5.427120170321406145e-02,1.840128235494391598e-02,1.529822250541537643e-02
6.033999999999999808e+00,1.024703142225639463e-01,5.493365495384573000e-02,1.839112258839696937e-02,1.533201240281214725e-02
6.035000000000000142e+00,1.017858778448773455e-01,5.560377891913915321e-02,1.837930213420720452e-02,1.536392947928548469e-02
6.035999999999999588e+00,1.010673601718559828e-01,5.628051916322557302e-02,1.836589788555653344e-02,1.539408101997737609e-02
6.036999999999999922e+00,1.003156825444569272e-01,5.696273903366459029e-02,1.835102750514309641e-02,1.542257050693117415e-02
6.038000000000000256e+00,9.953172775818926177e-02,5.764924817258338524e-02,1.833484113572264249e-02,1.544950988818732593e-02
6.038999999999999702e+00,9.871636173585193741e-02,5.833883845106796473e-02,1.831752961291126594e-02,1.547502753016209882e-02
6.040000000000000036e+00,9.787054923303419030e-02,5.903030428678199271e-02,1.829932634383648477e-02,1.549926369597923181e-02
6.041000000000000369e+00,9.699547694634864936e-02,5.972243534388745750e-02,1.828048511034270976e-02,1.552236518152702582e-02
6.041999999999999815e+00,9.609262351816028058e-02,6.041399706591542296e-02,1.826125481896108405e-02,1.554448933553842678e-02
6.043000000000000149e+00,9.516378051148285944e-02,6.110372520627792292e-02,1.824187077320529524e-02,1.556580794327842507e-02
6.043999999999999595e+00,9.421103475925979298e-02,6.179033745056576599e-02,1.822255317790662243e-02,1.558650329332074078e-02
6.044999999999999929e+00,9.323667885181549653e-02,6.247253249977775119e-02,1.820350184293724818e-02,1.560675931114978085e-02
6.046000000000000263e+00,9.224305893468616457e-02,6.314897082873575929e-02,1.818489394017842875e-02,1.562675356419769568e-02
6.046999999999999709e+00,9.123244674344690996e-02,6.381826247054162016e-02,1.816689043942356155e-02,1.564665934401399464e-02
6.048000000000000043e+00,9.020698095092630209e-02,6.447896852335177620e-02,1.814964217717051145e-02,1.566665925440311954e-02
6.049000000000000377e+00,8.916865297763239273e-02,6.512963924318264375e-02,1.813328881636261034e-02,1.568695453460731623e-02
6.049999999999999822e+00,8.811931545614887229e-02,6.576889890007575623e-02,1.811795642323295666e-02,1.570775940582689115e-02
6.051000000000000156e+00,8.706070478497023035e-02,6.639549097102359632e-02,1.810375755922814800e-02,1.572928917395893453e-02
6.051999999999999602e+00,8.599447296139063612e-02,6.700822014718735287e-02,1.809079213048029461e-02,1.575175063891588734e-02
6.052999999999999936e+00,8.492222182787655116e-02,6.760585633375702785e-02,1.807914846411470822e-02,1.577533573636197631e-02
6.054000000000000270e+00,8.384551313038107745e-02,6.818707750791047628e-02,1.806890146968359590e-02,1.580021901071033269e-02
6.054999999999999716e+00,8.276584216414899220e-02,6.875046423185597610e-02,1.806010850026624689e-02,1.582655672070631611e-02
6.056000000000000050e+00,8.168460270382804644e-02,6.929454641491845923e-02,1.805281437067613945e-02,1.585448616007422915e-02
6.057000000000000384e+00,8.060307860487217479e-02,6.981789239270679015e-02,1.804706627499270619e-02,1.588412602521969974e-02
6.057999999999999829e+00,7.952247776310801541e-02,7.031919380379443585e-02,1.804291972036969893e-02,1.591557593159752954e-02
6.059000000000000163e+00,7.844397742230486970e-02,7.079731209582658391e-02,1.804042695708985705e-02,1.594891527312806631e-02
6.059999999999999609e+00,7.736872808275750690e-02,7.125128352645782037e-02,1.803962367710369719e-02,1.598420364655614434e-02
6.060999999999999943e+00,7.629781359595268209e-02,7.168027071156829466e-02,1.804052763651598640e-02,1.602148507934411659e-02
6.062000000000000277e+00,7.523221951909997429e-02,7.208348407141622338e-02,1.804314584738997765e-02,1.606079800303526414e-02
6.062999999999999723e+00,7.417285111133302411e-02,7.246018245551634485e-02,1.804748245129767295e-02,1.610218126838446062e-02
6.064000000000000057e+00,7.312057554402986992e-02,7.280983794358535099e-02,1.805353896489105686e-02,1.614566699489347265e-02
6.065000000000000391e+00,7.207624137287334254e-02,7.313237746969063202e-02,1.806130412865209270e-02,1.619127370986119321e-02
6.065999999999999837e+00,7.104066932258130962e-02,7.342828343150295534e-02,1.807074534611847680e-02,1.623901099291831865e-02
6.067000000000000171e+00,7.001462948742211145e-02,7.369844461708208172e-02,1.808181037532370292e-02,1.628888364885716297e-02
6.067999999999999616e+00,6.899882935298246034e-02,7.394391389076768184e-02,1.809443283540497494e-02,1.634088833453263556e-02
6.068999999999999950e+00,6.799392506876292264e-02,7.416579706202017230e-02,1.810853594117026524e-02,1.639501271928308496e-02
6.070000000000000284e+00,6.700053962717679445e-02,7.436528531213287829e-02,1.812403545211484571e-02,1.645124222618060336e-02
6.070999999999999730e+00,6.601927090488225736e-02,7.454370340692086094e-02,1.814084525496114167e-02,1.650956956596601882e-02
6.072000000000000064e+00,6.505068291739547759e-02,7.470252272766093882e-02,1.815888610441111425e-02,1.657000166980996531e-02
6.073000000000000398e+00,6.409531147105827775e-02,7.484335591451164726e-02,1.817808757104847836e-02,1.663255911288275338e-02
6.073999999999999844e+00,6.315370658814384308e-02,7.496792766420659615e-02,1.819837607734751256e-02,1.669726737783878631e-02
6.075000000000000178e+00,6.222644539051457729e-02,7.507802779411154592e-02,1.821965879230864893e-02,1.676414657234630637e-02
6.075999999999999623e+00,6.131408412422456600e-02,7.517551905356913144e-02,1.824181701392305760e-02,1.683320366616576635e-02
6.076999999999999957e+00,6.041711772349545040e-02,7.526243683239330906e-02,1.826471516865448008e-02,1.690442827441164531e-02
6.078000000000000291e+00,5.953596822976578440e-02,7.534105232462547097e-02,1.828822361957851972e-02,1.697780263368041387e-02
6.078999999999999737e+00,5.867097072562693638e-02,7.541377553388603494e-02,1.831224356655298049e-02,1.705332731075058506e-02
6.080000000000000071e+00,5.782236274529365533e-02,7.548299678078869424e-02,1.833671630250028467e-02,1.713103895540298016e-02
6.081000000000000405e+00,5.699029170374714931e-02,7.555102211666930856e-02,1.836160772279371578e-02,1.721100737479308238e-02
6.081999999999999851e+00,5.617483337771438795e-02,7.562009795237109588e-02,1.838688034442493430e-02,1.729332692528310483e-02
6.083000000000000185e+00,5.537601499683726669e-02,7.569244597893096116e-02,1.841247593751912590e-02,1.737811067424946745e-02
6.083999999999999631e+00,5.459383760818183051e-02,7.577027997076206389e-02,1.843831645042020087e-02,1.746548011821374286e-02
6.084999999999999964e+00,5.382828146699300542e-02,7.585580230705113447e-02,1.846430916873487496e-02,1.755555141004412623e-02
6.086000000000000298e+00,5.307928741386867127e-02,7.595118004190348771e-02,1.849034513145079994e-02,1.764842745926244183e-02
6.086999999999999744e+00,5.234673168112423391e-02,7.605851170493689584e-02,1.851629875147783530e-02,1.774420078063207451e-02
6.088000000000000078e+00,5.163041133264830579e-02,7.617979849742841092e-02,1.854203772064514158e-02,1.784296220247247669e-02
6.089000000000000412e+00,5.093003824741126895e-02,7.631692944689213998e-02,1.856743717401967628e-02,1.794480306973784620e-02
6.089999999999999858e+00,5.024523915258357482e-02,7.647167947355056061e-02,1.859238612769064519e-02,1.804980777850217696e-02
6.091000000000000192e+00,4.957557801795110103e-02,7.664571148408143297e-02,1.861678594532812162e-02,1.815804611760635234e-02
6.091999999999999638e+00,4.892060766831212576e-02,7.684057764555413117e-02,1.864054862401500270e-02,1.826957139699444260e-02
6.092999999999999972e+00,4.827992573376044261e-02,7.705771773192428287e-02,1.866359400823685774e-02,1.838442083757281867e-02
6.094000000000000306e+00,4.765320700609521759e-02,7.729845251056520483e-02,1.868584552140869007e-02,1.850261319590795761e-02
6.094999999999999751e+00,4.704020603183673571e-02,7.756397694292384293e-02,1.870723118378276109e-02,1.862414496926442439e-02
6.096000000000000085e+00,4.644074061266476039e-02,7.785535818647093542e-02,1.872768476526361081e-02,1.874899068397554644e-02
6.097000000000000419e+00,4.585466107447139922e-02,7.817353181025649134e-02,1.874713732294200352e-02,1.887710803391436792e-02
6.097999999999999865e+00,4.528181239648289280e-02,7.851929269827241653e-02,1.876550450303367257e-02,1.900844168560511874e-02
6.099000000000000199e+00,4.472203575194724778e-02,7.889329019182236835e-02,1.878268018309218329e-02,1.914292493378539489e-02
6.099999999999999645e+00,4.417524927612835606e-02,7.929603466845094872e-02,1.879853827596273189e-02,1.928048902211405152e-02
6.100999999999999979e+00,4.364156013974414966e-02,7.972790832038088860e-02,1.881293897594359457e-02,1.942108112312766061e-02
6.102000000000000313e+00,4.312131083844225610e-02,8.018916779491279401e-02,1.882574275562271318e-02,1.956467836601252785e-02
6.102999999999999758e+00,4.261501808672430586e-02,8.067993745699472696e-02,1.883682824562696659e-02,1.971128941363246151e-02
6.104000000000000092e+00,4.212325740164128696e-02,8.120020142202682978e-02,1.884609263729972867e-02,1.986094391909866766e-02
6.105000000000000426e+00,4.164658025650327250e-02,8.174980152592077609e-02,1.885343291976366784e-02,2.001368243091456237e-02
6.105999999999999872e+00,4.118548942796416978e-02,8.232844609060151198e-02,1.885872952304741210e-02,2.016955933794416581e-02
6.107000000000000206e+00,4.074043730191918844e-02,8.293573261564432531e-02,1.886184152009455495e-02,2.032865208448625394e-02
6.107999999999999652e+00,4.031182763848096401e-02,8.357117503906719147e-02,1.886261355864491188e-02,2.049106579385247609e-02
6.108999999999999986e+00,3.990002231409234962e-02,8.423421302311143166e-02,1.886090292730329201e-02,2.065693014051664042e-02
6.110000000000000320e+00,3.950534171577697179e-02,8.492419535276016229e-02,1.885662789297775505e-02,2.082639329920820195e-02
6.110999999999999766e+00,3.912805997256316171e-02,8.564036493834870090e-02,1.884981137706777388e-02,2.099962150714811127e-02
6.112000000000000099e+00,3.876841677424524429e-02,8.638189014222460993e-02,1.884058655302088894e-02,2.117679865432633632e-02
6.113000000000000433e+00,3.842664120342172834e-02,8.714794222074491448e-02,1.882916129445819792e-02,2.135811557740667846e-02
6.113999999999999879e+00,3.810296030228231545e-02,8.793774023667563777e-02,1.881577105685532450e-02,2.154375702857149605e-02
6.115000000000000213e+00,3.779759377862143555e-02,8.875050302481991837e-02,1.880064656905523074e-02,2.173389621675248309e-02
6.115999999999999659e+00,3.751075437970537857e-02,8.958536226262091284e-02,1.878399741884336296e-02,2.192869095078601310e-02
6.116999999999999993e+00,3.724265179258265390e-02,9.044131406144197138e-02,1.876600499061826383e-02,2.212827795485247662e-02
6.118000000000000327e+00,3.699349546629433771e-02,9.131721179602628191e-02,1.874682438778624977e-02,2.233276832569546996e-02
6.118999999999999773e+00,3.676350233485203151e-02,9.221179060002009098e-02,1.872659035894371632e-02,2.254224328548757109e-02
6.120000000000000107e+00,3.655289790041079540e-02,9.312371517148507194e-02,1.870541996926426698e-02,2.275675367976510641e-02
6.121000000000000441e+00,3.636189921223063198e-02,9.405159577990510056e-02,1.868341332100274116e-02,2.297632632891218052e-02
6.121999999999999886e+00,3.619069449367842001e-02,9.499394616456062479e-02,1.866065518830297212e-02,2.320097032872237008e-02
6.123000000000000220e+00,3.603943306514181821e-02,9.594913760005956138e-02,1.863721833048500795e-02,2.343068145317217174e-02
6.123999999999999666e+00,3.590822770932447505e-02,9.691540039204978030e-02,1.861317038988987566e-02,2.366545251976157754e-02
6.125000000000000000e+00,3.579717310981711531e-02,9.789086998502767589e-02,1.858858371611507923e-02,2.390528877715532990e-02
6.126000000000000334e+00,3.570637404447494362e-02,9.887365070716533366e-02,1.856354482876452355e-02,2.415021806437182492e-02
6.126999999999999780e+00,3.563596146424234667e-02,9.986187633668165697e-02,1.853816039810723265e-02,2.440028946377613070e-02
6.128000000000000114e+00,3.558608422238184604e-02,1.008537640141839442e-01,1.851255444113230481e-02,2.465555978747515156e-02
6.128999999999999559e+00,3.555688554412352737e-02,1.018476566181076015e-01,1.848685618371316911e-02,2.491607486165977117e-02
6.129999999999999893e+00,3.554847933053838227e-02,1.028420215970302504e-01,1.846119470739313040e-02,2.518185990094014975e-02
6.131000000000000227e+00,3.556093416395145201e-02,1.038353821160578061e-01,1.843571148974542176e-02,2.545292332365800894e-02
6.131999999999999673e+00,3.559426631408879604e-02,1.048262278363981947e-01,1.841056991302770021e-02,2.572925869318311298e-02
6.133000000000000007e+00,3.564844098878002659e-02,1.058130067627721660e-01,1.838594180692328106e-02,2.601083366574386338e-02
6.134000000000000341e+00,3.572337331316122883e-02,1.067942260722748588e-01,1.836198761381866232e-02,2.629757922321020874e-02
6.134999999999999787e+00,3.581892179279698440e-02,1.077685619423556368e-01,1.833885118889726565e-02,2.658939592639695745e-02
6.136000000000000121e+00,3.593488265586507191e-02,1.087349070194195966e-01,1.831666422513040030e-02,2.688617202886714116e-02
6.136999999999999567e+00,3.607099407682230058e-02,1.096923930256512719e-01,1.829554767454443301e-02,2.718779876113094213e-02
6.137999999999999901e+00,3.622694720380550265e-02,1.106404032698261597e-01,1.827560988002378123e-02,2.749418296375771148e-02
6.139000000000000234e+00,3.640239867093385956e-02,1.115785396954967618e-01,1.825694618453109139e-02,2.780526399085186257e-02
6.139999999999999680e+00,3.659697956961029119e-02,1.125065356715155285e-01,1.823964138762483242e-02,2.812102759985113387e-02
6.141000000000000014e+00,3.681029402471300976e-02,1.134241374997318891e-01,1.822377864506543807e-02,2.844149987982643596e-02
6.142000000000000348e+00,3.704191105286029628e-02,1.143310212133838294e-01,1.820944958670918032e-02,2.876671860573172534e-02
6.142999999999999794e+00,3.729135984226648187e-02,1.152268117803660341e-01,1.819675106787546279e-02,2.909670138942535220e-02
6.144000000000000128e+00,3.755812755207532661e-02,1.161111677479836068e-01,1.818577308240379442e-02,2.943142876575793182e-02
6.144999999999999574e+00,3.784165718783281257e-02,1.169838261104819144e-01,1.817659427028273794e-02,2.977084424176391908e-02
6.145999999999999908e+00,3.814135985926683098e-02,1.178445546088924129e-01,1.816928478243683143e-02,3.011486143926951284e-02
6.147000000000000242e+00,3.845665208664966056e-02,1.186930548433178523e-01,1.816390557071257544e-02,3.046336379955948137e-02
6.147999999999999687e+00,3.878698343634520013e-02,1.195288951757690205e-01,1.816050260900030008e-02,3.081619525807788654e-02
6.149000000000000021e+00,3.913181407833055819e-02,1.203514870433798900e-01,1.815910430765741920e-02,3.117315538535407604e-02
6.150000000000000355e+00,3.949057863802373641e-02,1.211600784910812495e-01,1.815972473239838014e-02,3.153400484975876772e-02
6.150999999999999801e+00,3.986269668324696203e-02,1.219537741301358197e-01,1.816236772717193595e-02,3.189847398907477705e-02
6.152000000000000135e+00,4.024760239134644174e-02,1.227315681421753263e-01,1.816703005318629979e-02,3.226626901004118336e-02
6.152999999999999581e+00,4.064473196615305678e-02,1.234923357250939657e-01,1.817370367063252459e-02,3.263708042472748122e-02
6.153999999999999915e+00,4.105348553565257852e-02,1.242347861495318728e-01,1.818237485919168422e-02,3.301059731337543240e-02
6.155000000000000249e+00,4.147321538352088943e-02,1.249574383172089298e-01,1.819301928914649966e-02,3.338651518074029628e-02
6.155999999999999694e+00,4.190324834046624258e-02,1.256586271531374699e-01,1.820559876462551213e-02,3.376452734127487892e-02
6.157000000000000028e+00,4.234291518351297051e-02,1.263364942215280118e-01,1.822006376092687868e-02,3.414431076120370140e-02
6.158000000000000362e+00,4.279155991542100274e-02,1.269889619060608210e-01,1.823635609449800882e-02,3.452551563884583702e-02
6.158999999999999808e+00,4.324852614300030845e-02,1.276137348036245067e-01,1.825440880311781852e-02,3.490775781596727051e-02
6.160000000000000142e+00,4.371313380710340618e-02,1.282083472265105606e-01,1.827414523798445017e-02,3.529061759645501367e-02
6.160999999999999588e+00,4.418465553806286139e-02,1.287702632773800870e-01,1.829547594655002093e-02,3.567364572616313345e-02
6.161999999999999922e+00,4.466229948277174178e-02,1.292970411910537298e-01,1.831829509925270508e-02,3.605637714898661528e-02
6.163000000000000256e+00,4.514520074551983675e-02,1.297865270139204330e-01,1.834247895122848374e-02,3.643835398721521901e-02
6.163999999999999702e+00,4.563241878482195146e-02,1.302369932503045502e-01,1.836788352590296505e-02,3.681914649257108513e-02
6.165000000000000036e+00,4.612294461414369329e-02,1.306471676560005402e-01,1.839434049877717789e-02,3.719836825359466165e-02
6.166000000000000369e+00,4.661572301466495455e-02,1.310161538748267074e-01,1.842165631326560596e-02,3.757569140952397857e-02
6.166999999999999815e+00,4.710967867588648772e-02,1.313432769571698799e-01,1.844962419273838902e-02,3.795084871246239694e-02
6.168000000000000149e+00,4.760371907319200374e-02,1.316279672642228227e-01,1.847804875329744564e-02,3.832361123648369422e-02
6.168999999999999595e+00,4.809671433096059101e-02,1.318698797505483411e-01,1.850676828372617086e-02,3.869376763463588942e-02
6.169999999999999929e+00,4.858750058717437037e-02,1.320693012786183229e-01,1.853566633024588545e-02,3.906113946150201188e-02
6.171000000000000263e+00,4.907492033321135538e-02,1.322275765652610457e-01,1.856466827071587278e-02,3.942562261607119450e-02
6.171999999999999709e+00,4.955786331257781147e-02,1.323471831362689199e-01,1.859371986554457512e-02,3.978721600166527927e-02
6.173000000000000043e+00,5.003529830092098840e-02,1.324313808985343177e-01,1.862276769072294252e-02,4.014602043210904747e-02
6.174000000000000377e+00,5.050628688229458207e-02,1.324837224946354974e-01,1.865176181277303225e-02,4.050220965165353404e-02
6.174999999999999822e+00,5.096995652367161678e-02,1.325077322446480410e-01,1.868066912785928610e-02,4.085598935812797400e-02
6.176000000000000156e+00,5.142545570050997827e-02,1.325068041749007941e-01,1.870947608211714561e-02,4.120758697967301376e-02
6.176999999999999602e+00,5.187191797529955295e-02,1.324842023176831252e-01,1.873817565290782083e-02,4.155728619049007394e-02
6.177999999999999936e+00,5.230844076229755613e-02,1.324430786075201372e-01,1.876675147567601759e-02,4.190545868024966869e-02
6.179000000000000270e+00,5.273409405833106439e-02,1.323864868732834710e-01,1.879517669237796423e-02,4.225255627124642477e-02
6.179999999999999716e+00,5.314795267162226305e-02,1.323173927928932847e-01,1.882342621675011859e-02,4.259907107724995173e-02
6.181000000000000050e+00,5.354912533738871022e-02,1.322386865748271523e-01,1.885148909269353940e-02,4.294548985381695105e-02
6.182000000000000384e+00,5.393676541798926583e-02,1.321532030780731004e-01,1.887937667614670439e-02,4.329227728953264492e-02
6.182999999999999829e+00,5.431005848914282480e-02,1.320637483857547423e-01,1.890712161665934060e-02,4.363990344577996228e-02
6.184000000000000163e+00,5.466819256439818531e-02,1.319731212763086969e-01,1.893476427524045866e-02,4.398888204726985468e-02
6.184999999999999609e+00,5.501031956828968117e-02,1.318841135534150888e-01,1.896233790209866238e-02,4.433976980998558665e-02
6.185999999999999943e+00,5.533552610731391763e-02,1.317994842971818847e-01,1.898986148277730102e-02,4.469312322605382276e-02
6.187000000000000277e+00,5.564284788152137201e-02,1.317219162658123666e-01,1.901733753137298949e-02,4.504945667605187581e-02
6.187999999999999723e+00,5.593134017286920112e-02,1.316539675090208084e-01,1.904475084838732485e-02,4.540922386583045450e-02
6.189000000000000057e+00,5.620017130841559877e-02,1.315980339329212712e-01,1.907206716696948495e-02,4.577280775714703126e-02
6.190000000000000391e+00,5.644870058790287665e-02,1.315563326541671629e-01,1.909923304865506280e-02,4.614051265616262582e-02
6.190999999999999837e+00,5.667652622629129611e-02,1.315308943864425539e-01,1.912617792225772273e-02,4.651256229965344130e-02
6.192000000000000171e+00,5.688348731526088331e-02,1.315235520131052827e-01,1.915281552338040510e-02,4.688910313072418290e-02
6.192999999999999616e+00,5.706960517142003336e-02,1.315359282098811367e-01,1.917904329520832632e-02,4.727020797015162729e-02
6.193999999999999950e+00,5.723498528145563868e-02,1.315694326062049613e-01,1.920474214404423174e-02,4.765587522226526207e-02
6.195000000000000284e+00,5.737973466395791117e-02,1.316252924297033056e-01,1.922977415291666700e-02,4.804602901685006006e-02
6.195999999999999730e+00,5.750394519459753329e-02,1.317046325102137760e-01,1.925397758937483217e-02,4.844052429071330629e-02
6.197000000000000064e+00,5.760773000426681195e-02,1.318085647559378293e-01,1.927716889742492681e-02,4.883914655963792623e-02
6.198000000000000398e+00,5.769124986776906494e-02,1.319382091671981172e-01,1.929915364488088078e-02,4.924160594542626584e-02
6.198999999999999844e+00,5.775472178790529154e-02,1.320946285244450347e-01,1.931974260110413608e-02,4.964754280471090492e-02
6.200000000000000178e+00,5.779845285148399459e-02,1.322787528935604751e-01,1.933877567167570366e-02,5.005654493193259502e-02
6.200999999999999623e+00,5.782288594534502890e-02,1.324913589002037206e-01,1.935613858683388547e-02,5.046815389944502711e-02
6.201999999999999957e+00,5.782859750669431392e-02,1.327330823510060875e-01,1.937174860728071990e-02,5.088185360046216382e-02
6.203000000000000291e+00,5.781623543199552323e-02,1.330044172099788535e-01,1.938552393826046064e-02,5.129705697147448479e-02
6.203999999999999737e+00,5.778645504257154397e-02,1.333056915596489145e-01,1.939737013274150934e-02,5.171310107722197624e-02
6.205000000000000071e+00,5.773990863508263877e-02,1.336370327949667480e-01,1.940718863389458843e-02,5.212924376807261118e-02
6.206000000000000405e+00,5.767727342403092955e-02,1.339983361542528284e-01,1.941489627669113274e-02,5.254465636880802787e-02
6.206999999999999851e+00,5.759926675209170455e-02,1.343892465527112279e-01,1.942044565738099832e-02,5.295842113561607251e-02
6.208000000000000185e+00,5.750663230278024035e-02,1.348091514457770146e-01,1.942383247386610806e-02,5.336954735289357876e-02
6.208999999999999631e+00,5.740011423130076534e-02,1.352571818536938697e-01,1.942508228066906414e-02,5.377701028784643428e-02
6.209999999999999964e+00,5.728043074521325939e-02,1.357322276861830102e-01,1.942422464218869493e-02,5.417980193891924062e-02
6.211000000000000298e+00,5.714824757850731074e-02,1.362329773603268013e-01,1.942127077777587238e-02,5.457697384445813621e-02
6.211999999999999744e+00,5.700416694897174341e-02,1.367579808714260714e-01,1.941620837236018859e-02,5.496765808310858509e-02
6.213000000000000078e+00,5.684876285735483703e-02,1.373057238782064704e-01,1.940901459841586074e-02,5.535106866325514852e-02
6.214000000000000412e+00,5.668264905824366151e-02,1.378747166021740689e-01,1.939967619623922737e-02,5.572648582985025717e-02
6.214999999999999858e+00,5.650651702855157693e-02,1.384635929006715893e-01,1.938820472946204548e-02,5.609321984783430248e-02
6.216000000000000192e+00,5.632111453939158546e-02,1.390711564113968346e-01,1.937463802193247972e-02,5.645058564289841957e-02
6.216999999999999638e+00,5.612718595554105905e-02,1.396963273332082200e-01,1.935902573702575485e-02,5.679794084182029218e-02
6.217999999999999972e+00,5.592541041172180427e-02,1.403380728917712483e-01,1.934141145305488807e-02,5.713476640242284160e-02
6.219000000000000306e+00,5.571636880057408842e-02,1.409954190173676458e-01,1.932182459698826224e-02,5.746069152370730793e-02
6.219999999999999751e+00,5.550054485038340146e-02,1.416674667029563794e-01,1.930028026948868436e-02,5.777542110667411440e-02
6.221000000000000085e+00,5.527834739353903321e-02,1.423533342669860147e-01,1.927677715471512107e-02,5.807864389316170356e-02
6.222000000000000419e+00,5.505013861220289795e-02,1.430521225134348262e-01,1.925129311944656987e-02,5.837000583252487107e-02
6.222999999999999865e+00,5.481625779317583769e-02,1.437629331466746818e-01,1.922378655940464032e-02,5.864914415037093126e-02
6.224000000000000199e+00,5.457704092040317062e-02,1.444848510030067590e-01,1.919420097982215204e-02,5.891571634798149076e-02
6.224999999999999645e+00,5.433282797271288961e-02,1.452168920009397901e-01,1.916246345721555125e-02,5.916939121804781071e-02
6.225999999999999979e+00,5.408394284272723118e-02,1.459579795670856717e-01,1.912848511466931634e-02,5.940984345335525996e-02
6.227000000000000313e+00,5.383066587745864023e-02,1.467070526299906474e-01,1.909218684844627908e-02,5.963679177304580248e-02
6.227999999999999758e+00,5.357324377636354246e-02,1.474633709807100235e-01,1.905355052383657030e-02,5.985010954479121070e-02
6.229000000000000092e+00,5.331193758939171967e-02,1.482267993470706424e-01,1.901265284979947873e-02,6.004998468240597964e-02
6.230000000000000426e+00,5.304707061897583759e-02,1.489977614423753649e-01,1.896964993976277963e-02,6.023697581532720668e-02
6.230999999999999872e+00,5.277905496110441713e-02,1.497769066701383212e-01,1.892473901676876638e-02,6.041189109949030023e-02
6.232000000000000206e+00,5.250838329572623392e-02,1.505648131070891904e-01,1.887813053339274308e-02,6.057561560050313265e-02
6.232999999999999652e+00,5.223558273848764866e-02,1.513619031862829534e-01,1.883002876103886253e-02,6.072900650350028517e-02
6.233999999999999986e+00,5.196116025584806425e-02,1.521684733925161293e-01,1.878062136468310397e-02,6.087287034011436976e-02
6.235000000000000320e+00,5.168557108463967681e-02,1.529847076212724755e-01,1.873008846710400022e-02,6.100798312041547100e-02
6.235999999999999766e+00,5.140921264208501290e-02,1.538106632448695832e-01,1.867862244106670636e-02,6.113509784110438688e-02
6.237000000000000099e+00,5.113242994453465889e-02,1.546462655581353207e-01,1.862644110248773757e-02,6.125491636376725890e-02
6.238000000000000433e+00,5.085552873886322461e-02,1.554913180070996992e-01,1.857378795338690200e-02,6.136806036419728549e-02
6.238999999999999879e+00,5.057878386860893694e-02,1.563455124903261051e-01,1.852092235666857184e-02,6.147507939358366064e-02
6.240000000000000213e+00,5.030242640900225298e-02,1.572084359523081842e-01,1.846810707507972812e-02,6.157648915017217839e-02
6.240999999999999659e+00,5.002664430862371198e-02,1.580795898665501853e-01,1.841559930094554057e-02,6.167280654896249714e-02
6.241999999999999993e+00,4.975162935507845829e-02,1.589584236829461594e-01,1.836364814918418215e-02,6.176456318616537627e-02
6.243000000000000327e+00,4.947762461640879683e-02,1.598443416109982806e-01,1.831249502728823572e-02,6.185230971216377355e-02
6.243999999999999773e+00,4.920492038959330822e-02,1.607366461675064362e-01,1.826236763404166102e-02,6.193661277440653395e-02
6.245000000000000107e+00,4.893381198175842522e-02,1.616344466659697388e-01,1.821346961053433092e-02,6.201802164825769015e-02
6.246000000000000441e+00,4.866455827075420737e-02,1.625366043570838359e-01,1.816597615472151372e-02,6.209701829294849568e-02
6.246999999999999886e+00,4.839736793369073253e-02,1.634417538219680721e-01,1.812003507357232146e-02,6.217399673836074975e-02
6.248000000000000220e+00,4.813242142619852948e-02,1.643483690202892367e-01,1.807577007456178872e-02,6.224928172468977700e-02
6.248999999999999666e+00,4.786990607221713184e-02,1.652548294835909648e-01,1.803328839140520834e-02,6.232316671293455790e-02
6.250000000000000000e+00,4.761002904816170195e-02,1.661594710463246971e-01,1.799268621751334146e-02,6.239594987116937885e-02
6.251000000000000334e+00,4.735300332843794119e-02,1.670605979481112335e-01,1.795404451883636510e-02,6.246794246871532896e-02
6.251999999999999780e+00,4.709903051417184405e-02,1.679564918922945849e-01,1.791742307254232461e-02,6.253945449793403555e-02
6.253000000000000114e+00,4.684829659618134495e-02,1.688455060625203563e-01,1.788286110291709141e-02,6.261080866126310374e-02
6.253999999999999559e+00,4.660097707187286359e-02,1.697261977288148371e-01,1.785038131643790910e-02,6.268239039993835082e-02
6.254999999999999893e+00,4.635723543844264688e-02,1.705973576710627104e-01,1.781999312674345873e-02,6.275466409882821117e-02
6.256000000000000227e+00,4.611720168967956002e-02,1.714578923635281527e-01,1.779169623105168047e-02,6.282812757488134836e-02
6.256999999999999673e+00,4.588094661457395307e-02,1.723066329471905633e-01,1.776548518205935123e-02,6.290325101948378295e-02
6.258000000000000007e+00,4.564848105616521601e-02,1.731421851145695245e-01,1.774135079401223392e-02,6.298043596353433693e-02
6.259000000000000341e+00,4.541977448279857499e-02,1.739628928186824353e-01,1.771927414394794051e-02,6.306000050813015401e-02
6.259999999999999787e+00,4.519476278814507642e-02,1.747669046699376338e-01,1.769921783100700946e-02,6.314217905125264763e-02
6.261000000000000121e+00,4.497334205263824741e-02,1.755522904328636613e-01,1.768112649952244264e-02,6.322712544490086128e-02
6.261999999999999567e+00,4.475537448516554023e-02,1.763171827159759619e-01,1.766493723126763213e-02,6.331493528968037965e-02
6.262999999999999901e+00,4.454070932559315438e-02,1.770599415461260595e-01,1.765058529264580331e-02,6.340569480207501607e-02
6.264000000000000234e+00,4.432919242164180124e-02,1.777793061131986430e-01,1.763799841002579652e-02,6.349953285808385139e-02
6.264999999999999680e+00,4.412065855837905143e-02,1.784744562141989399e-01,1.762708753515551674e-02,6.359665823058176237e-02
6.266000000000000014e+00,4.391491618842371242e-02,1.791449205866540162e-01,1.761774360822910418e-02,6.369737261950919605e-02
6.267000000000000348e+00,4.371173220357924688e-02,1.797904097736730822e-01,1.760984096684669112e-02,6.380204668451855410e-02
6.267999999999999794e+00,4.351082559299358776e-02,1.804107925768491105e-01,1.760323874709622885e-02,6.391106349842637369e-02
6.269000000000000128e+00,4.331186410969896372e-02,1.810062729136797666e-01,1.759778098546196587e-02,6.402476486591504590e-02
6.269999999999999574e+00,4.311445800634144260e-02,1.815775799901697130e-01,1.759330873820775729e-02,6.414345223940687291e-02
6.270999999999999908e+00,4.291815864451101886e-02,1.821260302466426728e-01,1.758968164276125679e-02,6.426745475731328316e-02
6.272000000000000242e+00,4.272247342681293608e-02,1.826534289857424109e-01,1.758679372904766933e-02,6.439718993566780070e-02
6.272999999999999687e+00,4.252691405637399474e-02,1.831618784988152393e-01,1.758458343926581902e-02,6.453314785039025725e-02
6.274000000000000021e+00,4.233106760984484129e-02,1.836536304554841625e-01,1.758304201942322009e-02,6.467586510293253654e-02
6.275000000000000355e+00,4.213464595415508662e-02,1.841309717571310844e-01,1.758220955924742063e-02,6.482597504193836346e-02
6.275999999999999801e+00,4.193748734631102398e-02,1.845961052960929105e-01,1.758215034088331935e-02,6.498428110064639884e-02
6.277000000000000135e+00,4.173951020688827784e-02,1.850511174690345206e-01,1.758292306585705275e-02,6.515176236168052082e-02
6.277999999999999581e+00,4.154064425357226892e-02,1.854980190191794220e-01,1.758456984271010090e-02,6.532950383002281147e-02
6.278999999999999915e+00,4.134078500641843318e-02,1.859387502157206495e-01,1.758712263012587179e-02,6.551860736772611993e-02
6.280000000000000249e+00,4.113978648500494356e-02,1.863751574730134197e-01,1.759060658003285676e-02,6.572013870178405881e-02
6.280999999999999694e+00,4.093747103314542002e-02,1.868089833517987408e-01,1.759503485787778515e-02,6.593511888166342372e-02
6.282000000000000028e+00,4.073363908043333564e-02,1.872418425953654708e-01,1.760040252641859385e-02,6.616453403576665060e-02
6.283000000000000362e+00,4.052807068977444527e-02,1.876751890560925951e-01,1.760668239950666236e-02,6.640932634432508697e-02
6.283999999999999808e+00,4.032051767548662513e-02,1.881102993616847741e-01,1.761382659519668270e-02,6.667035721722715247e-02
6.285000000000000142e+00,4.011069511381794989e-02,1.885482335064048165e-01,1.762177426033724112e-02,6.694837948512308290e-02
6.285999999999999588e+00,3.989828389485587656e-02,1.889897779947735668e-01,1.763045680316892294e-02,6.724404916450303638e-02
6.286999999999999922e+00,3.968295005347465682e-02,1.894354385162486110e-01,1.763979609440021606e-02,6.755796662416294063e-02
6.288000000000000256e+00,3.946438079333326049e-02,1.898854848967538866e-01,1.764969973436726972e-02,6.789070204243286000e-02
6.288999999999999702e+00,3.924232753938846491e-02,1.903400135480968203e-01,1.766005954176212006e-02,6.824278758947602275e-02
6.290000000000000036e+00,3.901662493424230826e-02,1.907990105153928584e-01,1.767075535828043983e-02,6.861470323566780383e-02
6.291000000000000369e+00,3.878716290230256603e-02,1.912623864056881562e-01,1.768165736695976459e-02,6.900685433205380748e-02
6.291999999999999815e+00,3.855383697459018738e-02,1.917299516716711727e-01,1.769262133676922227e-02,6.941954288447922672e-02
6.293000000000000149e+00,3.831652148015733672e-02,1.922013614320216834e-01,1.770348566102447618e-02,6.985297178761004644e-02
6.293999999999999595e+00,3.807507950163611238e-02,1.926760950357396807e-01,1.771407954197875417e-02,7.030727630353843238e-02
6.294999999999999929e+00,3.782939212339030133e-02,1.931534829086545280e-01,1.772423580921532807e-02,7.078253685655286342e-02
6.296000000000000263e+00,3.757938985185320380e-02,1.936327454627260192e-01,1.773379822450664098e-02,7.127876791271228751e-02
6.296999999999999709e+00,3.732508287583622547e-02,1.941129925246352639e-01,1.774262377869062490e-02,7.179591206740595921e-02
6.298000000000000043e+00,3.706658313536623922e-02,1.945931521995042657e-01,1.775058229760142700e-02,7.233385023342232822e-02
6.299000000000000377e+00,3.680409898499971411e-02,1.950719018885165301e-01,1.775755046641721083e-02,7.289241414358316185e-02
6.299999999999999822e+00,3.653790107376182761e-02,1.955476966583327425e-01,1.776340950492677831e-02,7.347138974697604852e-02
6.301000000000000156e+00,3.626829323557859142e-02,1.960188807531666189e-01,1.776806144733784898e-02,7.407051310340934114e-02
6.301999999999999602e+00,3.599560789078428552e-02,1.964838684614691189e-01,1.777144854702349813e-02,7.468947840594621079e-02
6.302999999999999936e+00,3.572019938522215388e-02,1.969414070136254191e-01,1.777354908770601566e-02,7.532797970625201844e-02
6.304000000000000270e+00,3.544242500342918711e-02,1.973908106281825892e-01,1.777435867659771587e-02,7.598575943112073627e-02
6.304999999999999716e+00,3.516264683333576724e-02,1.978319697878160033e-01,1.777388190445851682e-02,7.666261797143684997e-02
6.306000000000000050e+00,3.488125532656712047e-02,1.982650824595610095e-01,1.777213716301791896e-02,7.735838695591459868e-02
6.307000000000000384e+00,3.459866907530135399e-02,1.986903170255748252e-01,1.776916483646000244e-02,7.807288652452915034e-02
6.307999999999999829e+00,3.431530319544765645e-02,1.991076209209954317e-01,1.776503133866536022e-02,7.880587277520703648e-02
6.309000000000000163e+00,3.403154422522827738e-02,1.995166499048887376e-01,1.775982052597550875e-02,7.955699366180836452e-02
6.309999999999999609e+00,3.374774389504262007e-02,1.999167349863127108e-01,1.775361197537907165e-02,8.032577075476789175e-02
6.310999999999999943e+00,3.346421806558662337e-02,2.003068786339657070e-01,1.774646129395604163e-02,8.111159672945142396e-02
6.312000000000000277e+00,3.318124669976744989e-02,2.006857643756762843e-01,1.773839336922593268e-02,8.191373694637868463e-02
6.312999999999999723e+00,3.289907385601135298e-02,2.010517627716074673e-01,1.772940639499273954e-02,8.273133437823980418e-02
6.314000000000000057e+00,3.261790764212487564e-02,2.014029469265095906e-01,1.771948151580691674e-02,8.356341754154743284e-02
6.315000000000000391e+00,3.233792624798629417e-02,2.017371509161468013e-01,1.770858850879577714e-02,8.440892568518014449e-02
6.315999999999999837e+00,3.205929274299067211e-02,2.020521190329755690e-01,1.769668382073215016e-02,8.526677011152129781e-02
6.317000000000000171e+00,3.178217207006486800e-02,2.023457437759323130e-01,1.768371437246281722e-02,8.613591885635352163e-02
6.317999999999999616e+00,3.150673989789866403e-02,2.026162979306480871e-01,1.766963254516377979e-02,8.701546641868278253e-02
6.318999999999999950e+00,3.123317697312831889e-02,2.028625616687509126e-01,1.765441127441242861e-02,8.790466161491203301e-02
6.320000000000000284e+00,3.096165217325296676e-02,2.030838206290598580e-01,1.763805523411204196e-02,8.880287928241722972e-02
6.320999999999999730e+00,3.069230882661282828e-02,2.032797460232446396e-01,1.762060380607622170e-02,8.970953703977617433e-02
6.322000000000000064e+00,3.042526448946967360e-02,2.034502065621795752e-01,1.760211633840420495e-02,9.062401727614431690e-02
6.323000000000000398e+00,3.016061933067661766e-02,2.035951864336149886e-01,1.758265122362991442e-02,9.154564801876073632e-02
6.323999999999999844e+00,2.989846483043407527e-02,2.037149915989358018e-01,1.756226378743933753e-02,9.247370947868835400e-02
6.325000000000000178e+00,2.963888742348849345e-02,2.038106729511318382e-01,1.754102849392072394e-02,9.340745191464609742e-02
6.325999999999999623e+00,2.938196453487143880e-02,2.038843503713032301e-01,1.751906611262298713e-02,9.434615207571848960e-02
6.326999999999999957e+00,2.912776234884418766e-02,2.039391442850727876e-01,1.749654992642750082e-02,9.528917131630607051e-02
6.328000000000000291e+00,2.887635635834239628e-02,2.039787366546138847e-01,1.747368424829130740e-02,9.623596669976215712e-02
6.328999999999999737e+00,2.862787174149871924e-02,2.040069271953752483e-01,1.745067474273339150e-02,9.718607050177376083e-02
6.330000000000000071e+00,2.838250558534603438e-02,2.040274480033680560e-01,1.742771102377801973e-02,9.813905898554084462e-02
6.331000000000000405e+00,2.814050983052630156e-02,2.040439265953677417e-01,1.740496641811185158e-02,9.909450847842928012e-02
6.331999999999999851e+00,2.790215359598229375e-02,2.040598364998842396e-01,1.738260778448013147e-02,1.000519617070430162e-01
6.333000000000000185e+00,2.766769155055854787e-02,2.040784693447852960e-01,1.736080222929348854e-02,1.010109334596663300e-01
6.333999999999999631e+00,2.743734816125173448e-02,2.041029652346852408e-01,1.733971938986556688e-02,1.019709205569467592e-01
6.334999999999999964e+00,2.721131043177675568e-02,2.041363103122527389e-01,1.731954035340018197e-02,1.029313773193540754e-01
6.336000000000000298e+00,2.698972391622057529e-02,2.041812728264073562e-01,1.730046896910680115e-02,1.038917070324663211e-01
6.336999999999999744e+00,2.677269540896807035e-02,2.042403485410340391e-01,1.728272855981694694e-02,1.048513048203673081e-01
6.338000000000000078e+00,2.656029793352258223e-02,2.043157393129078625e-01,1.726654437328095648e-02,1.058095898140869739e-01
6.339000000000000412e+00,2.635257093650527835e-02,2.044093622937775412e-01,1.725212941975448958e-02,1.067659885007199994e-01
6.339999999999999858e+00,2.614951893595221857e-02,2.045228853945308956e-01,1.723968110552806174e-02,1.077199052579558836e-01
6.341000000000000192e+00,2.595111503358116592e-02,2.046577582433755094e-01,1.722937990392190907e-02,1.086707074305215404e-01
6.341999999999999638e+00,2.575730918307623379e-02,2.048152189312646143e-01,1.722138475379654879e-02,1.096177125280469317e-01
6.342999999999999972e+00,2.556803204801236934e-02,2.049962813837429010e-01,1.721582822629439541e-02,1.105601539041658338e-01
6.344000000000000306e+00,2.538319103368308349e-02,2.052017147731456936e-01,1.721281420372914109e-02,1.114971336806003244e-01
6.344999999999999751e+00,2.520267100130441779e-02,2.054320442254818635e-01,1.721242136486970595e-02,1.124276114431503049e-01
6.346000000000000085e+00,2.502634383081765376e-02,2.056876060493310898e-01,1.721471208064306868e-02,1.133504458017335764e-01
6.347000000000000419e+00,2.485407386006861091e-02,2.059686330144034627e-01,1.721973722419881808e-02,1.142644310232524829e-01
6.347999999999999865e+00,2.468571545750206792e-02,2.062752972390696216e-01,1.722753480786268568e-02,1.151682801832364378e-01
6.349000000000000199e+00,2.452111274409765271e-02,2.066076635802178707e-01,1.723813039550866830e-02,1.160606084467424859e-01
6.349999999999999645e+00,2.436010729846891862e-02,2.069655769314110438e-01,1.725153660319703880e-02,1.169399967907125415e-01
6.350999999999999979e+00,2.420255069951286406e-02,2.073485772674788508e-01,1.726774851740297753e-02,1.178050830564415646e-01
6.352000000000000313e+00,2.404831709282059804e-02,2.077559122582921802e-01,1.728674516200019023e-02,1.186545596887884496e-01
6.352999999999999758e+00,2.389731519281986308e-02,2.081865974168513322e-01,1.730849796156679749e-02,1.194870948364011726e-01
6.354000000000000092e+00,2.374949376328130274e-02,2.086394397706234916e-01,1.733297498935850930e-02,1.203012694702790819e-01
6.355000000000000426e+00,2.360483112789899321e-02,2.091130416463229669e-01,1.736014127356706738e-02,1.210955711653770445e-01
6.355999999999999872e+00,2.346332007332389141e-02,2.096058384450875944e-01,1.738996310409019266e-02,1.218684804512602943e-01
6.357000000000000206e+00,2.332496229513920244e-02,2.101161255700620678e-01,1.742241329247018120e-02,1.226186374149144942e-01
6.357999999999999652e+00,2.318976769436994004e-02,2.106420197601072408e-01,1.745747097148115171e-02,1.233449741032636437e-01
6.358999999999999986e+00,2.305775874470298442e-02,2.111814434311480582e-01,1.749511801905688849e-02,1.240467031087682664e-01
6.360000000000000320e+00,2.292897916321089136e-02,2.117321932990920696e-01,1.753533221918104901e-02,1.247231783838137070e-01
6.360999999999999766e+00,2.280349838230521717e-02,2.122919822267624324e-01,1.757808071590442195e-02,1.253738037005563133e-01
6.362000000000000099e+00,2.268140669484235497e-02,2.128584427083674568e-01,1.762332964230687096e-02,1.259981309865719490e-01
6.363000000000000433e+00,2.256279879039260403e-02,2.134292494618106883e-01,1.767106768436761330e-02,1.265960163159761953e-01
6.363999999999999879e+00,2.244775886832022296e-02,2.140023412553279936e-01,1.772131583808634475e-02,1.271676097950073248e-01
6.365000000000000213e+00,2.233635697986186344e-02,2.145759919709082364e-01,1.777411230717872853e-02,1.277131875441761266e-01
6.365999999999999659e+00,2.222865086080903427e-02,2.151486073710849878e-01,1.782949276356029372e-02,1.282329776977604585e-01
6.366999999999999993e+00,2.212469243486023251e-02,2.157184385931285309e-01,1.788748732965212557e-02,1.287270592413693182e-01
6.368000000000000327e+00,2.202453113361668366e-02,2.162834637497898227e-01,1.794813050474131089e-02,1.291953290833389167e-01
6.368999999999999773e+00,2.192820670047889234e-02,2.168414566522732789e-01,1.801146710664931760e-02,1.296375046137580311e-01
6.370000000000000107e+00,2.183574509949279610e-02,2.173901053200910094e-01,1.807755154811740983e-02,1.300531463805749410e-01
6.371000000000000441e+00,2.174716697810194846e-02,2.179270761444007387e-01,1.814644372502603395e-02,1.304417189259946541e-01
6.371999999999999886e+00,2.166249912754601020e-02,2.184499970659057599e-01,1.821819874438125944e-02,1.308027015462242260e-01
6.373000000000000220e+00,2.158177582421861446e-02,2.189564196965575471e-01,1.829285338116206847e-02,1.311357119331353349e-01
6.373999999999999666e+00,2.150502565972355409e-02,2.194438520548839811e-01,1.837041661040355114e-02,1.314405549137963591e-01
6.375000000000000000e+00,2.143225681422497239e-02,2.199098847272741575e-01,1.845086661144631004e-02,1.317171337760676963e-01
6.376000000000000334e+00,2.136345439820457395e-02,2.203523476657197333e-01,1.853415369034881743e-02,1.319652877742401031e-01
6.376999999999999780e+00,2.129858538820637165e-02,2.207693537337548084e-01,1.862021345873455039e-02,1.321847021760571839e-01
6.378000000000000114e+00,2.123760850657758006e-02,2.211591298334022182e-01,1.870899027656753796e-02,1.323749557192628046e-01
6.378999999999999559e+00,2.118049079860108430e-02,2.215197785992233659e-01,1.880045135128472975e-02,1.325356425121492487e-01
6.379999999999999893e+00,2.112721764920543963e-02,2.218491806580817072e-01,1.889457876857097290e-02,1.326664885431256824e-01
6.381000000000000227e+00,2.107778477760614486e-02,2.221450102067947519e-01,1.899135614166776870e-02,1.327674477159497268e-01
6.381999999999999673e+00,2.103218351912352485e-02,2.224047223941155171e-01,1.909076093756497186e-02,1.328388016264778204e-01
6.383000000000000007e+00,2.099039554998844218e-02,2.226255290304906542e-01,1.919275394708993068e-02,1.328812467182451940e-01
6.384000000000000341e+00,2.095239919832865907e-02,2.228045265076304127e-01,1.929726699724242100e-02,1.328958722839845008e-01
6.384999999999999787e+00,2.091818066114890795e-02,2.229390418118578632e-01,1.940419711363940841e-02,1.328840050060782763e-01
6.386000000000000121e+00,2.088774112773700981e-02,2.230270031824060917e-01,1.951340564468517086e-02,1.328471017937151721e-01
6.386999999999999567e+00,2.086109359750225323e-02,2.230670446480319813e-01,1.962471820387712632e-02,1.327868217707035003e-01
6.387999999999999901e+00,2.083824950943056684e-02,2.230582689219835490e-01,1.973792750863413020e-02,1.327051483320995651e-01
6.389000000000000234e+00,2.081920117634710257e-02,2.229999261241538133e-01,1.985280457315099015e-02,1.326043835984027641e-01
6.389999999999999680e+00,2.080391203664513564e-02,2.228913395907888284e-01,1.996911411509217846e-02,1.324869920236554088e-01
6.391000000000000014e+00,2.079232216728373744e-02,2.227320906610640583e-01,2.008662088168685494e-02,1.323554319253728573e-01
6.392000000000000348e+00,2.078436552379041291e-02,2.225221734831943077e-01,2.020508468672488692e-02,1.322121040983184059e-01
6.392999999999999794e+00,2.077998959212543767e-02,2.222619166595648510e-01,2.032426106894628590e-02,1.320593579480048296e-01
6.394000000000000128e+00,2.077916414591192765e-02,2.219517740694962882e-01,2.044392245740859343e-02,1.318994603366925311e-01
6.394999999999999574e+00,2.078187353205249513e-02,2.215922245249928590e-01,2.056388503890877600e-02,1.317345870769636440e-01
6.395999999999999908e+00,2.078810054645841010e-02,2.211838026129344381e-01,2.068401497590870164e-02,1.315669001880225564e-01
6.397000000000000242e+00,2.079781146553446800e-02,2.207270762457249069e-01,2.080421151760732459e-02,1.313986131990637074e-01
6.397999999999999687e+00,2.081095290804529929e-02,2.202225180071656352e-01,2.092438097018444604e-02,1.312319377259227593e-01
6.399000000000000021e+00,2.082746849410438764e-02,2.196703614243169234e-01,2.104441909652103940e-02,1.310689630141147755e-01
6.400000000000000355e+00,2.084731911463921783e-02,2.190705098896225389e-01,2.116421275201082683e-02,1.309115784395055437e-01
6.400999999999999801e+00,2.087048225931763951e-02,2.184225196282101877e-01,2.128365108227443792e-02,1.307614602059631870e-01
6.402000000000000135e+00,2.089693619714941622e-02,2.177256218331573845e-01,2.140263226967056148e-02,1.306200721971823298e-01
6.402999999999999581e+00,2.092664675242613195e-02,2.169787363849279282e-01,2.152106287935644929e-02,1.304886533343981858e-01
6.403999999999999915e+00,2.095955881210345706e-02,2.161804882141337703e-01,2.163885415546787719e-02,1.303682078346125317e-01
6.405000000000000249e+00,2.099559414938135735e-02,2.153292883556913728e-01,2.175592104327151236e-02,1.302595096698338506e-01
6.405999999999999694e+00,2.103466038399437812e-02,2.144235324919199770e-01,2.187218527884907462e-02,1.301631127484058625e-01
6.407000000000000028e+00,2.107666834582415730e-02,2.134618797748298047e-01,2.198758078744372096e-02,1.300793756370888510e-01
6.408000000000000362e+00,2.112154595078190658e-02,2.124434706683810681e-01,2.210205655860120189e-02,1.300085220941229747e-01
6.408999999999999808e+00,2.116923356058129230e-02,2.113679455220813519e-01,2.221557297301647929e-02,1.299507349696257807e-01
6.410000000000000142e+00,2.121966687943948465e-02,2.102352499183846313e-01,2.232809724586743566e-02,1.299062843373035847e-01
6.410999999999999588e+00,2.127277368910356070e-02,2.090453772251690268e-01,2.243960206167944574e-02,1.298756877810517962e-01
6.411999999999999922e+00,2.132848396610819916e-02,2.077983048843638492e-01,2.255006127066409502e-02,1.298598185453502807e-01
6.413000000000000256e+00,2.138672710932795068e-02,2.064942624665758175e-01,2.265944400761349398e-02,1.298598534027600726e-01
6.413999999999999702e+00,2.144741370146551265e-02,2.051341743211301250e-01,2.276771629952265702e-02,1.298770800084965427e-01
6.415000000000000036e+00,2.151042448293178158e-02,2.037199554047957883e-01,2.287484439479272116e-02,1.299127109392686219e-01
6.416000000000000369e+00,2.157561892781290416e-02,2.022544284282705440e-01,2.298079143730076199e-02,1.299678342423192801e-01
6.416999999999999815e+00,2.164285241525292294e-02,2.007409317722740338e-01,2.308551756480727024e-02,1.300434755904065764e-01
6.418000000000000149e+00,2.171198514156520015e-02,1.991829290603732427e-01,2.318898800192961684e-02,1.301406742130068184e-01
6.418999999999999595e+00,2.178287826104724489e-02,1.975838376416816644e-01,2.329117374932618625e-02,1.302605740011694990e-01
6.419999999999999929e+00,2.185538777009275041e-02,1.959470728555556540e-01,2.339203816412572037e-02,1.304045113904714337e-01
6.421000000000000263e+00,2.192937133962570215e-02,1.942761640320743721e-01,2.349152392041981355e-02,1.305740042535264711e-01
6.421999999999999709e+00,2.200470295321814429e-02,1.925747590187028568e-01,2.358955423090942916e-02,1.307706746447555024e-01
6.423000000000000043e+00,2.208127321911589752e-02,1.908464934369210331e-01,2.368604914116535787e-02,1.309962100008259522e-01
6.424000000000000377e+00,2.215897589363355347e-02,1.890948899886269463e-01,2.378094798449235936e-02,1.312523664000944668e-01
6.424999999999999822e+00,2.223769749218417954e-02,1.873233616379459676e-01,2.387422311130137781e-02,1.315409817538484016e-01
6.426000000000000156e+00,2.231731494018517406e-02,1.855352152713833636e-01,2.396587602873754413e-02,1.318639905201217932e-01
6.426999999999999602e+00,2.239771407679489942e-02,1.837336412601432711e-01,2.405591840382800828e-02,1.322234107493043265e-01
6.427999999999999936e+00,2.247883708422472940e-02,1.819218026287784118e-01,2.414434669272405229e-02,1.326212662231262274e-01
6.429000000000000270e+00,2.256071993160154582e-02,1.801030034505139710e-01,2.423112348032734065e-02,1.330594813709543023e-01
6.429999999999999716e+00,2.264347740711073614e-02,1.782807752980302418e-01,2.431617556271360031e-02,1.335398258753079936e-01
6.431000000000000050e+00,2.272725139439170719e-02,1.764588098231500424e-01,2.439940905240772437e-02,1.340638975109569309e-01
6.432000000000000384e+00,2.281216730336910539e-02,1.746408006012498959e-01,2.448072735276923817e-02,1.346330904873996037e-01
6.432999999999999829e+00,2.289831872686828168e-02,1.728303059196883151e-01,2.456003466745350708e-02,1.352485647620948472e-01
6.434000000000000163e+00,2.298577135594410958e-02,1.710307253186170995e-01,2.463722931867610988e-02,1.359112440866430682e-01
6.434999999999999609e+00,2.307456742239026234e-02,1.692453567223568267e-01,2.471220487594781925e-02,1.366218305525342680e-01
6.435999999999999943e+00,2.316472551947387423e-02,1.674774073902751126e-01,2.478486880367571782e-02,1.373808344211476240e-01
6.437000000000000277e+00,2.325624720080439467e-02,1.657299442016836877e-01,2.485517415589742762e-02,1.381886323063799549e-01
6.437999999999999723e+00,2.334912807139260388e-02,1.640058655247396413e-01,2.492314433063984661e-02,1.390455231588209051e-01
6.439000000000000057e+00,2.344336534329706165e-02,1.623078945673189777e-01,2.498887431489731775e-02,1.399517238720114354e-01
6.440000000000000391e+00,2.353896390082956327e-02,1.606385531569501923e-01,2.505251808704408306e-02,1.409073209105468905e-01
6.440999999999999837e+00,2.363593315771289616e-02,1.590001450585959708e-01,2.511427782130135067e-02,1.419122610849100352e-01
6.442000000000000171e+00,2.373427550213696655e-02,1.573947693470975628e-01,2.517439163603635635e-02,1.429663939523381500e-01
6.442999999999999616e+00,2.383398356781431943e-02,1.558243254689488655e-01,2.523311559500031678e-02,1.440694880837875280e-01
6.443999999999999950e+00,2.393504158936689968e-02,1.542905099618482045e-01,2.529070884467888788e-02,1.452211841688554050e-01
6.445000000000000284e+00,2.403741749830040630e-02,1.527948314251061368e-01,2.534742537566713610e-02,1.464209417950321779e-01
6.445999999999999730e+00,2.414105407261117608e-02,1.513386194309980504e-01,2.540350682875107402e-02,1.476680219503565539e-01
6.447000000000000064e+00,2.424586554100837191e-02,1.499230096433761261e-01,2.545918018323607701e-02,1.489614900743148340e-01
6.448000000000000398e+00,2.435173413879072185e-02,1.485489320763586918e-01,2.551466182624109041e-02,1.503002378623775059e-01
6.448999999999999844e+00,2.445850782939279142e-02,1.472171048284172667e-01,2.557015349961357792e-02,1.516830261135907187e-01
6.450000000000000178e+00,2.456600672345630315e-02,1.459280279043387862e-01,2.562582754195217791e-02,1.531085339794417688e-01
6.450999999999999623e+00,2.467403978302622550e-02,1.446820343644998064e-01,2.568181681064614363e-02,1.545753966761965470e-01
6.451999999999999957e+00,2.478242197957937487e-02,1.434794147263927511e-01,2.573821934987119073e-02,1.560821953647265892e-01
6.453000000000000291e+00,2.489098084079672743e-02,1.423205053991270508e-01,2.579511691768721776e-02,1.576273894502939754e-01
6.453999999999999737e+00,2.499954846745560191e-02,1.412056767645516742e-01,2.585259052689124759e-02,1.592092476066210016e-01
6.455000000000000071e+00,2.510794234254315471e-02,1.401352769828240197e-01,2.591071502506765364e-02,1.608258165669010920e-01
6.456000000000000405e+00,2.521594984703360784e-02,1.391095771009997206e-01,2.596954214563701457e-02,1.624749203501298922e-01
6.456999999999999851e+00,2.532332812456404569e-02,1.381287637491428744e-01,2.602909025817331384e-02,1.641541813714376130e-01
6.458000000000000185e+00,2.542980932267777452e-02,1.371930281256641959e-01,2.608934404042210359e-02,1.658610333750214771e-01
6.458999999999999631e+00,2.553510463376392273e-02,1.363026632180242281e-01,2.615026074611236789e-02,1.675926995257988050e-01
6.459999999999999964e+00,2.563891918584459279e-02,1.354580446585895437e-01,2.621178023808405297e-02,1.693461646283683508e-01
6.461000000000000298e+00,2.574097261192354741e-02,1.346595244676894731e-01,2.627383626674474962e-02,1.711181820322390801e-01
6.461999999999999744e+00,2.584100804614509334e-02,1.339073300709332504e-01,2.633636437891687110e-02,1.729053157309035360e-01
6.463000000000000078e+00,2.593879085084358632e-02,1.332014990555217826e-01,2.639930560101051704e-02,1.747039721489317965e-01
6.464000000000000412e+00,2.603409590562776391e-02,1.325418451291528465e-01,2.646260838837590293e-02,1.765103823834048569e-01
6.464999999999999858e+00,2.612669104721595040e-02,1.319279480694758866e-01,2.652622393194191755e-02,1.783205808671588510e-01
6.466000000000000192e+00,2.621634961013634066e-02,1.313591602729927976e-01,2.659009581797099064e-02,1.801304347814093598e-01
6.466999999999999638e+00,2.630288901284562678e-02,1.308346267291526921e-01,2.665415321184430586e-02,1.819356869855691394e-01
6.467999999999999972e+00,2.638619593608471092e-02,1.303533059562453911e-01,2.671830631314180485e-02,1.837319923884432882e-01
6.469000000000000306e+00,2.646622712533720778e-02,1.299139710687443050e-01,2.678244578992130046e-02,1.855150099194460278e-01
6.469999999999999751e+00,2.654298883232735981e-02,1.295152115406726090e-01,2.684645557190535811e-02,1.872805767668586918e-01
6.471000000000000085e+00,2.661650144976450763e-02,1.291554731897811559e-01,2.691022871900656740e-02,1.890248806018127170e-01
6.472000000000000419e+00,2.668677943691731905e-02,1.288330949947161796e-01,2.697366692006662736e-02,1.907445172850029957e-01
6.472999999999999865e+00,2.675384300595071152e-02,1.285462936535426426e-01,2.703666403753937630e-02,1.924364140694095615e-01
6.474000000000000199e+00,2.681773928964816672e-02,1.282931556748315438e-01,2.709908743344386153e-02,1.940976659112871316e-01
6.474999999999999645e+00,2.687854050351902099e-02,1.280717019870453721e-01,2.716076967273050452e-02,1.957253441159563512e-01
6.475999999999999979e+00,2.693631891579890622e-02,1.278799785138654277e-01,2.722151035972952826e-02,1.973164250545357268e-01
6.477000000000000313e+00,2.699113061461240470e-02,1.277160833925138905e-01,2.728107825553332741e-02,1.988680131239383142e-01
6.477999999999999758e+00,2.704302143170198708e-02,1.275781094650575986e-01,2.733921954207528884e-02,2.003777863606784893e-01
6.479000000000000092e+00,2.709204471363817548e-02,1.274640635249538467e-01,2.739568187343951328e-02,2.018443607630167613e-01
6.480000000000000426e+00,2.713828432395309215e-02,1.273718332999930203e-01,2.745023978279501758e-02,2.032674153795946126e-01
6.480999999999999872e+00,2.718186585265287489e-02,1.272992332170189145e-01,2.750270599707857824e-02,2.046476602150390234e-01
6.482000000000000206e+00,2.722294050222863124e-02,1.272441184221910493e-01,2.755293088586559941e-02,2.059866634182390410e-01
6.482999999999999652e+00,2.726165879770546877e-02,1.272044935571303714e-01,2.760079638933909604e-02,2.072864881321213604e-01
6.483999999999999986e+00,2.729815692375925709e-02,1.271785206604600371e-01,2.764621249483972462e-02,2.085492967355470073e-01
6.485000000000000320e+00,2.733256120588799243e-02,1.271644201313177902e-01,2.768912085866416517e-02,2.097771706374411127e-01
6.485999999999999766e+00,2.736500057516964846e-02,1.271603644505359954e-01,2.772949661799622642e-02,2.109721597061054998e-01
6.487000000000000099e+00,2.739561124584155224e-02,1.271644599860660974e-01,2.776733554705612672e-02,2.121363678657387786e-01
6.488000000000000433e+00,2.742453307111227673e-02,1.271748328947510942e-01,2.780263310035887420e-02,2.132719245751919512e-01
6.488999999999999879e+00,2.745189976666537190e-02,1.271897817305922551e-01,2.783537778028765189e-02,2.143808372317733968e-01
6.490000000000000213e+00,2.747782190257299154e-02,1.272079057881456976e-01,2.786556043572526245e-02,2.154648382819814578e-01
6.490999999999999659e+00,2.750237580834932749e-02,1.272281250310903500e-01,2.789317871976994961e-02,2.165253719805248223e-01
6.491999999999999993e+00,2.752561089584415130e-02,1.272496927494774777e-01,2.791822999443264314e-02,2.175637487195325459e-01
6.493000000000000327e+00,2.754756860360259296e-02,1.272723249527221712e-01,2.794070808259807234e-02,2.185813299154589495e-01
6.493999999999999773e+00,2.756830069384412149e-02,1.272962641624952318e-01,2.796061572498851830e-02,2.195795819742921984e-01
6.495000000000000107e+00,2.758788189210705996e-02,1.273220949091220522e-01,2.797798627063639160e-02,2.205599664329725984e-01
6.496000000000000441e+00,2.760642140894140756e-02,1.273504804288993209e-01,2.799290300593100869e-02,2.215237682451355050e-01
6.496999999999999886e+00,2.762407851870530076e-02,1.273820110274387352e-01,2.800551031544453243e-02,2.224720261088964368e-01
6.498000000000000220e+00,2.764106391521712475e-02,1.274171591471803811e-01,2.801601184735242819e-02,2.234056554525097604e-01
6.498999999999999666e+00,2.765761186796650978e-02,1.274563242888853420e-01,2.802465330055580600e-02,2.243256396234473149e-01
6.500000000000000000e+00,2.767395013840695875e-02,1.274999746728937011e-01,2.803169503005770863e-02,2.252330496709459839e-01
6.501000000000000334e+00,2.769029272491969895e-02,1.275488425759070399e-01,2.803738487895555964e-02,2.261288482571384706e-01
6.501999999999999780e+00,2.770684579427739117e-02,1.276040633160646920e-01,2.804194115586866598e-02,2.270136984751600917e-01
6.503000000000000114e+00,2.772381341189368228e-02,1.276671201079972451e-01,2.804554787450234954e-02,2.278879711877699610e-01
6.503999999999999559e+00,2.774139909303349402e-02,1.277396013847525991e-01,2.804835587000690730e-02,2.287518958166560312e-01
6.504999999999999893e+00,2.775980139353759896e-02,1.278229769884032252e-01,2.805048332201397557e-02,2.296056501999781951e-01
6.506000000000000227e+00,2.777920269231307082e-02,1.279185313922798217e-01,2.805201956757717024e-02,2.304493102317642095e-01
6.506999999999999673e+00,2.779975752031310643e-02,1.280273750347089290e-01,2.805304539511948095e-02,2.312828102584034429e-01
6.508000000000000007e+00,2.782159545547657070e-02,1.281504361169855666e-01,2.805367306325730337e-02,2.321060603712684078e-01
6.509000000000000341e+00,2.784483134672335533e-02,1.282884546263791115e-01,2.805408583892324281e-02,2.329191321470190645e-01
6.509999999999999787e+00,2.786956020719761826e-02,1.284420238979180062e-01,2.805455111183787972e-02,2.337223175656570617e-01
6.511000000000000121e+00,2.789584506364191710e-02,1.286116587863869176e-01,2.805540058640535600e-02,2.345160063714279430e-01
6.511999999999999567e+00,2.792371286498265479e-02,1.287978463179740019e-01,2.805699212991775993e-02,2.353004776822852917e-01
6.512999999999999901e+00,2.795315015206104731e-02,1.290010672672800840e-01,2.805967981790211813e-02,2.360757491380491846e-01
6.514000000000000234e+00,2.798409748353076695e-02,1.292217947278992418e-01,2.806380587739581642e-02,2.368415801839170443e-01
6.514999999999999680e+00,2.801645920643424867e-02,1.294604877597206605e-01,2.806969844871250522e-02,2.375975921610860020e-01
6.516000000000000014e+00,2.805013469153755726e-02,1.297175996672123022e-01,2.807766111269693540e-02,2.383433972457977279e-01
6.517000000000000348e+00,2.808505043752946087e-02,1.299935840716306412e-01,2.808796252657215151e-02,2.390786965063928515e-01
6.517999999999999794e+00,2.812116928566705740e-02,1.302888665372388954e-01,2.810083646934719015e-02,2.398033730508739858e-01
6.519000000000000128e+00,2.815847686044026243e-02,1.306037776022895558e-01,2.811648901399776274e-02,2.405175689474467748e-01
6.519999999999999574e+00,2.819695840789560037e-02,1.309384905236618268e-01,2.813509901983854769e-02,2.412216938771749308e-01
6.520999999999999908e+00,2.823657962569248864e-02,1.312930179499267880e-01,2.815680870155558291e-02,2.419163527710461170e-01
6.522000000000000242e+00,2.827728077794986611e-02,1.316672528008084042e-01,2.818171866972484993e-02,2.426022045854927256e-01
6.522999999999999687e+00,2.831898226712869712e-02,1.320609855251723974e-01,2.820989596654945725e-02,2.432797852937349792e-01
6.524000000000000021e+00,2.836159425891968816e-02,1.324738835748330845e-01,2.824138615221297166e-02,2.439494277163285763e-01
6.525000000000000355e+00,2.840502556454233343e-02,1.329055079293220698e-01,2.827621545921876409e-02,2.446113793568671646e-01
6.525999999999999801e+00,2.844919043876554740e-02,1.333553885019430896e-01,2.831438437091817265e-02,2.452659948295221881e-01
6.527000000000000135e+00,2.849401343550900245e-02,1.338230599499994344e-01,2.835586877107361403e-02,2.459137836345826333e-01
6.527999999999999581e+00,2.853943697403122856e-02,1.343080297559745007e-01,2.840063062109600758e-02,2.465552510539077424e-01
6.528999999999999915e+00,2.858542632381235599e-02,1.348097332933105574e-01,2.844862121986990039e-02,2.471907181262756048e-01
6.530000000000000249e+00,2.863195684660129609e-02,1.353274766832968656e-01,2.849977087839023274e-02,2.478203142864498498e-01
6.530999999999999694e+00,2.867899350535578484e-02,1.358604130742460114e-01,2.855398121882261886e-02,2.484440471393803695e-01
6.532000000000000028e+00,2.872647831207824839e-02,1.364076697121491821e-01,2.861113079424378383e-02,2.490617717682856724e-01
6.533000000000000362e+00,2.877432236526735604e-02,1.369686022836494321e-01,2.867108520701886626e-02,2.496731041671014228e-01
6.533999999999999808e+00,2.882240260082450170e-02,1.375429443897739079e-01,2.873371011085959145e-02,2.502773954365852815e-01
6.535000000000000142e+00,2.887056218321244760e-02,1.381307330140162382e-01,2.879888582523604593e-02,2.508738132198862769e-01
6.535999999999999588e+00,2.891861058941009449e-02,1.387321997221607206e-01,2.886650475922280384e-02,2.514615584445722973e-01
6.536999999999999922e+00,2.896633123976195129e-02,1.393477619703824000e-01,2.893645389646837610e-02,2.520400742459510957e-01
6.538000000000000256e+00,2.901350252534322730e-02,1.399779985158467743e-01,2.900860458010435378e-02,2.526089778396340413e-01
6.538999999999999702e+00,2.905991638868342386e-02,1.406235395082078843e-01,2.908280777468917958e-02,2.531677508786495112e-01
6.540000000000000036e+00,2.910537405685300130e-02,1.412849497537327359e-01,2.915888548918297435e-02,2.537154933156313685e-01
6.541000000000000369e+00,2.914967095844652606e-02,1.419626571870159226e-01,2.923662384402972436e-02,2.542508751110904019e-01
6.541999999999999815e+00,2.919259843773850532e-02,1.426569107043340889e-01,2.931577270535119448e-02,2.547721842311030938e-01
6.543000000000000149e+00,2.923395632446384659e-02,1.433677626724998433e-01,2.939605100546960684e-02,2.552773562450140199e-01
6.543999999999999595e+00,2.927355444211175370e-02,1.440950868067910895e-01,2.947715270414909272e-02,2.557639605840637542e-01
6.544999999999999929e+00,2.931121133046116559e-02,1.448386094507726485e-01,2.955874694144725034e-02,2.562291590482350112e-01
6.546000000000000263e+00,2.934676480258414585e-02,1.455979301991801589e-01,2.964047425158047172e-02,2.566696687019549006e-01
6.546999999999999709e+00,2.938008167800263207e-02,1.463725306077648947e-01,2.972194705233066961e-02,2.570817887027983528e-01
6.548000000000000043e+00,2.941105033728945439e-02,1.471617550995765189e-01,2.980275542610019007e-02,2.574615097639154637e-01
6.549000000000000377e+00,2.943956077120256018e-02,1.479647660359828532e-01,2.988247093591114498e-02,2.578046516546705358e-01
6.549999999999999822e+00,2.946549384866637908e-02,1.487805368714528731e-01,2.996064628335144003e-02,2.581069744974437419e-01
6.551000000000000156e+00,2.948872820204280487e-02,1.496079259265501171e-01,3.003681391766263239e-02,2.583642531065405423e-01
6.551999999999999602e+00,2.950914739175069731e-02,1.504457663533075862e-01,3.011048633633953489e-02,2.585723284234576758e-01
6.552999999999999936e+00,2.952664553389149765e-02,1.512928759980864957e-01,3.018116197489443403e-02,2.587272032723931803e-01
6.554000000000000270e+00,2.954114309212192702e-02,1.521479864405529681e-01,3.024833834848915035e-02,2.588252988805699317e-01
6.554999999999999716e+00,2.955259961319703019e-02,1.530097164688607458e-01,3.031153530632887602e-02,2.588638089522835029e-01
6.556000000000000050e+00,2.956100926075335561e-02,1.538767033505223369e-01,3.037032354429063108e-02,2.588408372445431538e-01
6.557000000000000384e+00,2.956638626123895067e-02,1.547477741176252475e-01,3.042432942802776943e-02,2.587551828100898010e-01
6.557999999999999829e+00,2.956875375719869581e-02,1.556219227987116760e-01,3.047320059703677309e-02,2.586060638861445438e-01
