Timestamp,rectus femoris,biceps femoris,vastus internus,semitendinosus
2.999999999999999889e-02,1.953295315411941388e-02,1.334101671083623777e-02,9.611910084420490982e-03,6.336577255942961451e-02
3.099999999999999978e-02,2.025040907833007553e-02,1.389485721281479014e-02,9.863464924249974036e-03,6.437713348236692723e-02
3.200000000000000067e-02,2.094466059589145113e-02,1.444859412274242770e-02,1.010688686964100400e-02,6.536598762689189990e-02
3.300000000000000155e-02,2.161603114524087918e-02,1.500224046424296354e-02,1.034225141349418876e-02,6.633128549330301327e-02
3.400000000000000244e-02,2.226481931254172333e-02,1.555582185404049897e-02,1.056962394081067784e-02,6.727212473572673213e-02
3.500000000000000333e-02,2.289129892946483238e-02,1.610938224439275451e-02,1.078905880052310161e-02,6.818775566600229765e-02
3.599999999999999728e-02,2.349571995056741469e-02,1.666297938418940736e-02,1.100059880255199740e-02,6.907754233528505539e-02
3.699999999999999817e-02,2.407831100143886793e-02,1.721667276925042955e-02,1.120427657982200030e-02,6.994088968131888240e-02
3.799999999999999906e-02,2.463928522795208811e-02,1.777051696274232345e-02,1.140012752864441245e-02,7.077720268921672275e-02
3.899999999999999994e-02,2.517884731880797727e-02,1.832456938964694207e-02,1.158821918813725260e-02,7.158593421009402935e-02
4.000000000000000083e-02,2.569719551717342815e-02,1.887890125017205323e-02,1.176867888049113603e-02,7.236668452352880421e-02
4.100000000000000172e-02,2.619451875356129320e-02,1.943359759634416886e-02,1.194169507848671583e-02,7.311929229213001702e-02
4.200000000000000261e-02,2.667099348663309541e-02,1.998875018256874442e-02,1.210749423014968566e-02,7.384389905885750671e-02
4.299999999999999656e-02,2.712677752658844074e-02,2.054445164571543775e-02,1.226631340459156255e-02,7.454096801435219910e-02
4.399999999999999745e-02,2.756200031266143463e-02,2.110079194377395898e-02,1.241838258231728158e-02,7.521122122966659995e-02
4.499999999999999833e-02,2.797676346565482197e-02,2.165785668508100892e-02,1.256391760042398394e-02,7.585550326094557538e-02
4.599999999999999922e-02,2.837116236555342272e-02,2.221573016988721144e-02,1.270311900658347565e-02,7.647465408642784013e-02
4.700000000000000011e-02,2.874531514146957956e-02,2.277450450484547889e-02,1.283617451423674054e-02,7.706945779331117463e-02
4.800000000000000100e-02,2.909938041447526075e-02,2.333429060155895601e-02,1.296326678613155849e-02,7.764064873150136603e-02
4.900000000000000189e-02,2.943356942181653627e-02,2.389522277232570061e-02,1.308458707044617662e-02,7.818893888144587412e-02
5.000000000000000278e-02,2.974816276447489125e-02,2.445745089242310280e-02,1.320034761908061259e-02,7.871505699413600121e-02
5.099999999999999672e-02,3.004351906896197966e-02,2.502112289306023668e-02,1.331078327378266285e-02,7.921978538654106394e-02
5.199999999999999761e-02,3.032006676017224081e-02,2.558636784759954139e-02,1.341613984678092716e-02,7.970396825408637698e-02
5.299999999999999850e-02,3.057828802685035388e-02,2.615328554730715627e-02,1.351665599595842406e-02,8.016848141432506014e-02
5.399999999999999939e-02,3.081869470851634693e-02,2.672194253781781312e-02,1.361255195689180068e-02,8.061417402912224306e-02
5.500000000000000028e-02,3.104179853746055415e-02,2.729237936215449245e-02,1.370403180428432337e-02,8.104180522181349267e-02
5.600000000000000117e-02,3.124809080600248271e-02,2.786462904182705758e-02,1.379128895513886087e-02,8.145200932786371417e-02
5.700000000000000205e-02,3.143803348220700761e-02,2.843873272030906715e-02,1.387450377489002178e-02,8.184531083932247708e-02
5.800000000000000294e-02,3.161205786047555782e-02,2.901474039090689780e-02,1.395383859769011407e-02,8.222217967968514785e-02
5.899999999999999689e-02,3.177056715172692225e-02,2.959269543793192209e-02,1.402943939542875169e-02,8.258309788543800878e-02
5.999999999999999778e-02,3.191393793159853776e-02,3.017261132333185630e-02,1.410144005478340332e-02,8.292861143821643466e-02
6.099999999999999867e-02,3.204253060164936190e-02,3.075445475990889674e-02,1.416996635133276061e-02,8.325935534777645364e-02
6.199999999999999956e-02,3.215671092970479733e-02,3.133814036657592977e-02,1.423514790630690113e-02,8.357603694880548495e-02
6.300000000000000044e-02,3.225686262764780599e-02,3.192352950612345475e-02,1.429713247267668137e-02,8.387937089878182151e-02
6.400000000000000133e-02,3.234338500621776469e-02,3.251043027327349400e-02,1.435608299550515665e-02,8.417000173813488084e-02
6.500000000000000222e-02,3.241668241815132134e-02,3.309860765163589319e-02,1.441215920568359593e-02,8.444846139298739507e-02
6.600000000000000311e-02,3.247715499815503198e-02,3.368780940330096119e-02,1.446550402934510503e-02,8.471517216473016532e-02
6.700000000000000400e-02,3.252521131490080514e-02,3.427779269904469850e-02,1.451624219691064963e-02,8.497046965203429447e-02
6.800000000000000488e-02,3.256129464929228418e-02,3.486833157924903309e-02,1.456448684042215697e-02,8.521461304384699009e-02
6.900000000000000577e-02,3.258588435294718783e-02,3.545920375676044761e-02,1.461035279170731435e-02,8.544777156791021067e-02
7.000000000000000666e-02,3.259947133260388680e-02,3.605016779938860494e-02,1.465396917033958551e-02,8.567000010294370527e-02
7.099999999999999367e-02,3.260253726847670702e-02,3.664094784118625964e-02,1.469547821555543081e-02,8.588122038033026151e-02
7.199999999999999456e-02,3.259554802411213786e-02,3.723124696633674235e-02,1.473502145305553325e-02,8.608121245651441378e-02
7.299999999999999545e-02,3.257895718908170729e-02,3.782078703225847521e-02,1.477272596426751176e-02,8.626961296214050168e-02
7.399999999999999634e-02,3.255321195209263246e-02,3.840933628328443289e-02,1.480869963190452505e-02,8.644591765456732801e-02
7.499999999999999722e-02,3.251875031649090891e-02,3.899669652680010784e-02,1.484303535143284211e-02,8.660949743406548551e-02
7.599999999999999811e-02,3.247599140873578399e-02,3.958266831266085695e-02,1.487581549877908110e-02,8.675964301020057390e-02
7.699999999999999900e-02,3.242532918681523962e-02,4.016702176375858829e-02,1.490710956304824343e-02,8.689562483995133535e-02
7.799999999999999989e-02,3.236712715503573673e-02,4.074947652022071348e-02,1.493696992107927148e-02,8.701673180159187615e-02
7.900000000000000078e-02,3.230170916979226148e-02,4.132968686581318246e-02,1.496543387261204706e-02,8.712227428431773557e-02
8.000000000000000167e-02,3.222935041470175593e-02,4.190723304649886932e-02,1.499252830788040669e-02,8.721155371867965467e-02
8.100000000000000255e-02,3.215027706596066542e-02,4.248161956656167776e-02,1.501826869797824246e-02,8.728380769700198882e-02
8.200000000000000344e-02,3.206468186580040125e-02,4.305227947909988362e-02,1.504265695629546963e-02,8.733816580144942998e-02
8.300000000000000433e-02,3.197274828144647946e-02,4.361858542497417529e-02,1.506568458024915534e-02,8.737364045153553360e-02
8.400000000000000522e-02,3.187467711559847927e-02,4.417986942681226270e-02,1.508733364809135974e-02,8.738914745105168247e-02
8.500000000000000611e-02,3.177071688073698080e-02,4.473544633184475816e-02,1.510757201732986811e-02,8.738356383961806695e-02
8.599999999999999312e-02,3.166118059774968713e-02,4.528462384212342956e-02,1.512635381488629249e-02,8.735580408808150954e-02
8.699999999999999400e-02,3.154643438456470467e-02,4.582669182932828933e-02,1.514363415349958067e-02,8.730485306277153967e-02
8.799999999999999489e-02,3.142686460791149078e-02,4.636092205479052514e-02,1.515939221514223806e-02,8.722978746527902671e-02
8.899999999999999578e-02,3.130284175108859895e-02,4.688660764861576902e-02,1.517364773218805342e-02,8.712988109487657118e-02
8.999999999999999667e-02,3.117470591415952980e-02,4.740311324169860230e-02,1.518646295839607037e-02,8.700475808581904780e-02
9.099999999999999756e-02,3.104277660287877924e-02,4.790988331641307663e-02,1.519793496316373949e-02,8.685446344425634679e-02
9.199999999999999845e-02,3.090737199267054938e-02,4.840639749200351810e-02,1.520818372514396062e-02,8.667937567728763171e-02
9.299999999999999933e-02,3.076883167376931807e-02,4.889211316130506052e-02,1.521733699470968239e-02,8.648000914245076998e-02
9.400000000000000022e-02,3.062752687016890435e-02,4.936644138323380976e-02,1.522552039627162769e-02,8.625688429564097592e-02
9.500000000000000111e-02,3.048384329433941053e-02,4.982876424649285846e-02,1.523286071302929270e-02,8.601060471083404879e-02
9.600000000000000200e-02,3.033815498645420911e-02,5.027846919017617960e-02,1.523949231371437250e-02,8.574204546261947335e-02
9.700000000000000289e-02,3.019080967172228791e-02,5.071496882872945228e-02,1.524555622167462349e-02,8.545243964769609624e-02
9.800000000000000377e-02,3.004212113849471719e-02,5.113770240261646810e-02,1.525119298543042498e-02,8.514329041214922789e-02
9.900000000000000466e-02,2.989236751311186505e-02,5.154613176084297393e-02,1.525653360243810208e-02,8.481619975385930321e-02
1.000000000000000056e-01,2.974180592760369141e-02,5.193972555386183743e-02,1.526169275216234487e-02,8.447273228617258045e-02
1.010000000000000064e-01,2.959069706453911278e-02,5.231793118720864250e-02,1.526676553114934831e-02,8.411436519391315980e-02
1.019999999999999934e-01,2.943931649575502740e-02,5.268015066777536476e-02,1.527182655982282575e-02,8.374249087673089897e-02
1.029999999999999943e-01,2.928794889761407103e-02,5.302572715262014041e-02,1.527692842583804403e-02,8.335842776801064002e-02
1.039999999999999952e-01,2.913688068912013637e-02,5.335394246173812832e-02,1.528209851611256678e-02,8.296343520836936547e-02
1.049999999999999961e-01,2.898639195835062826e-02,5.366402244066536403e-02,1.528733851465590918e-02,8.255873399416441272e-02
1.059999999999999970e-01,2.883674374926302117e-02,5.395514107625035832e-02,1.529262874956106681e-02,8.214552128890885430e-02
1.069999999999999979e-01,2.868817183137829796e-02,5.422642204913189629e-02,1.529793972084904884e-02,8.172497009419776859e-02
1.079999999999999988e-01,2.854088812262349159e-02,5.447695569749486794e-02,1.530325004968390544e-02,8.129822042429890594e-02
1.089999999999999997e-01,2.839507774870754162e-02,5.470584172759735547e-02,1.530855902079613674e-02,8.086637961158196775e-02
1.100000000000000006e-01,2.825089502350885268e-02,5.491222158665975267e-02,1.531388677122989816e-02,8.043052946874212905e-02
1.110000000000000014e-01,2.810847570095543341e-02,5.509527185315998138e-02,1.531926723628332376e-02,7.999172206250790285e-02
1.120000000000000023e-01,2.796796504273520861e-02,5.525420414124081192e-02,1.532473813469736705e-02,7.955095607596328333e-02
1.130000000000000032e-01,2.782953229326772665e-02,5.538831073346288381e-02,1.533033035679999719e-02,7.910914139205639517e-02
1.140000000000000041e-01,2.769335519785419766e-02,5.549702833314699990e-02,1.533606058861856393e-02,7.866707407023874887e-02
1.150000000000000050e-01,2.755959922018670280e-02,5.557998783490285255e-02,1.534192898269832496e-02,7.822543521842675873e-02
1.160000000000000059e-01,2.742841888463192976e-02,5.563701747549047727e-02,1.534791943777188972e-02,7.778479809929687849e-02
1.170000000000000068e-01,2.729997761128727038e-02,5.566808946044523448e-02,1.535399905931154191e-02,7.734563111156732285e-02
1.179999999999999938e-01,2.717446729801512376e-02,5.567328449479785890e-02,1.536011825400873838e-02,7.690830296368743324e-02
1.189999999999999947e-01,2.705211421663205815e-02,5.565279593520048446e-02,1.536621761502292988e-02,7.647308743674335885e-02
1.199999999999999956e-01,2.693316786948729211e-02,5.560688544711323705e-02,1.537223986377516706e-02,7.604016009833744483e-02
1.209999999999999964e-01,2.681788304887983837e-02,5.553579310970298277e-02,1.537813469154502947e-02,7.560959185797634652e-02
1.219999999999999973e-01,2.670650638949934735e-02,5.543968704101806533e-02,1.538385409910985463e-02,7.518134939162671171e-02
1.229999999999999982e-01,2.659926412617804811e-02,5.531866133355309995e-02,1.538934689537529814e-02,7.475531141724453543e-02
1.239999999999999991e-01,2.649634864628383144e-02,5.517275366711402174e-02,1.539455727401784109e-02,7.433130193854284307e-02
1.250000000000000000e-01,2.639791496021914874e-02,5.500196201367944793e-02,1.539943148759121382e-02,7.390912779758417039e-02
1.260000000000000009e-01,2.630409016376855300e-02,5.480624205313860270e-02,1.540393304133175385e-02,7.348860524765256363e-02
1.270000000000000018e-01,2.621498152343541138e-02,5.458551270042983489e-02,1.540805473543205815e-02,7.306956962922994681e-02
1.280000000000000027e-01,2.613067624605579578e-02,5.433970551342172384e-02,1.541181717227522140e-02,7.265187538588603611e-02
1.290000000000000036e-01,2.605123726029320158e-02,5.406882041328269634e-02,1.541525639872269073e-02,7.223540495288544028e-02
1.300000000000000044e-01,2.597669921571789733e-02,5.377292591250799197e-02,1.541840809916658096e-02,7.182009943120118423e-02
1.310000000000000053e-01,2.590707127967038087e-02,5.345211452184086415e-02,1.542129441595144375e-02,7.140600032955896070e-02
1.320000000000000062e-01,2.584234274428132139e-02,5.310646194469492015e-02,1.542391739794385895e-02,7.099328157759664248e-02
1.330000000000000071e-01,2.578248289901611048e-02,5.273600006781742344e-02,1.542626040410923979e-02,7.058225985421982818e-02
1.340000000000000080e-01,2.572744128556687243e-02,5.234071286058444156e-02,1.542829584794982133e-02,7.017336610986107948e-02
1.350000000000000089e-01,2.567715516874574319e-02,5.192059363320527393e-02,1.542999518088750827e-02,6.976706741317179050e-02
1.360000000000000098e-01,2.563156926909281735e-02,5.147575449160658040e-02,1.543133711351135640e-02,6.936377836568041744e-02
1.370000000000000107e-01,2.559066609004190251e-02,5.100650035439965174e-02,1.543230741491661250e-02,6.896381711941886039e-02
1.380000000000000115e-01,2.555448252293258948e-02,5.051331481141750623e-02,1.543288800318768327e-02,6.856741243085832938e-02
1.390000000000000124e-01,2.552309909449019740e-02,4.999681649691180979e-02,1.543304703207754904e-02,6.817473517862861210e-02
1.400000000000000133e-01,2.549661716613064316e-02,4.945774264465339909e-02,1.543273768941411800e-02,6.778592354239525164e-02
1.409999999999999865e-01,2.547513663212608651e-02,4.889692405622099447e-02,1.543190049583304836e-02,6.740108072038686338e-02
1.419999999999999873e-01,2.545874106213582427e-02,4.831522232058432786e-02,1.543046616294969399e-02,6.702025520744120390e-02
1.429999999999999882e-01,2.544749333287183238e-02,4.771348295702383668e-02,1.542835854239359324e-02,6.664342607920276107e-02
1.439999999999999891e-01,2.544143377388653413e-02,4.709255817200534017e-02,1.542549997379351334e-02,6.627049549001301498e-02
1.449999999999999900e-01,2.544057787204591012e-02,4.645338188116091699e-02,1.542182470190056262e-02,6.590127932581023307e-02
1.459999999999999909e-01,2.544491589453380664e-02,4.579704320163489190e-02,1.541729153048713302e-02,6.553549663928216751e-02
1.469999999999999918e-01,2.545441027223153616e-02,4.512481558708683615e-02,1.541188390929716309e-02,6.517276845185079881e-02
1.479999999999999927e-01,2.546898871111506410e-02,4.443813207695804235e-02,1.540560728767013769e-02,6.481263007166283840e-02
1.489999999999999936e-01,2.548854215617406965e-02,4.373852543673900639e-02,1.539849316283594186e-02,6.445455030747351821e-02
1.499999999999999944e-01,2.551293840286256859e-02,4.302755772987950506e-02,1.539060019198213759e-02,6.409795696746403704e-02
1.509999999999999953e-01,2.554204573073455900e-02,4.230676433502127826e-02,1.538200315861130638e-02,6.374227173582394657e-02
1.519999999999999962e-01,2.557574174141600057e-02,4.157762351634499559e-02,1.537277426582538652e-02,6.338694725772198169e-02
1.529999999999999971e-01,2.561390181596081075e-02,4.084154328029689779e-02,1.536296965913681693e-02,6.303149913309223640e-02
1.539999999999999980e-01,2.565640054795113867e-02,4.009986094709917098e-02,1.535263087657788225e-02,6.267553064378494909e-02
1.549999999999999989e-01,2.570314032845502292e-02,3.935384974538496533e-02,1.534179688841945041e-02,6.231874682449271841e-02
1.559999999999999998e-01,2.575407631310461937e-02,3.860472022906960565e-02,1.533051133850136215e-02,6.196096101654476052e-02
1.570000000000000007e-01,2.580921388356547871e-02,3.785361592605353265e-02,1.531881693853921235e-02,6.160210103579253499e-02
1.580000000000000016e-01,2.586858797508268665e-02,3.710160986381959985e-02,1.530674523513142482e-02,6.124221039781622966e-02
1.590000000000000024e-01,2.593224279003223873e-02,3.634970381260967803e-02,1.529431419589018584e-02,6.088143388700839598e-02
1.600000000000000033e-01,2.600021337367586921e-02,3.559882973571634746e-02,1.528153973011997513e-02,6.051998611419780877e-02
1.610000000000000042e-01,2.607251133376498053e-02,3.484985548539001193e-02,1.526845244645188421e-02,6.015811713644326347e-02
1.620000000000000051e-01,2.614913253419222025e-02,3.410359744892747791e-02,1.525510147631567275e-02,5.979609430450702479e-02
1.630000000000000060e-01,2.623007861024504242e-02,3.336083473477896577e-02,1.524154525318259512e-02,5.943419575356230500e-02
1.640000000000000069e-01,2.631536351619374881e-02,3.262231606965477343e-02,1.522784405542515311e-02,5.907269143679007989e-02
1.650000000000000078e-01,2.640500653197497272e-02,3.188876055667100307e-02,1.521406092347568628e-02,5.871180909583222779e-02
1.660000000000000087e-01,2.649902622505073690e-02,3.116085968618558313e-02,1.520026928281043715e-02,5.835170576996786401e-02
1.670000000000000095e-01,2.659743772057410888e-02,3.043928126482090338e-02,1.518655895499647704e-02,5.799245802260059868e-02
1.680000000000000104e-01,2.670025739183048280e-02,2.972466893837691013e-02,1.517303225159339491e-02,5.763406414925226207e-02
1.690000000000000113e-01,2.680751343090945552e-02,2.901763719411994819e-02,1.515979340622017335e-02,5.727644819033487350e-02
1.700000000000000122e-01,2.691924748964326028e-02,2.831876901577440320e-02,1.514693959235020697e-02,5.691947913952252747e-02
1.710000000000000131e-01,2.703550114047306024e-02,2.762861810731448431e-02,1.513455543328108208e-02,5.656301848897896806e-02
1.719999999999999862e-01,2.715630349189868814e-02,2.694771261211448624e-02,1.512271043965434866e-02,5.620697334608337759e-02
1.729999999999999871e-01,2.728168252246972181e-02,2.627655699751374127e-02,1.511146364337828500e-02,5.585133130672875063e-02
1.739999999999999880e-01,2.741169588611399449e-02,2.561562922980524168e-02,1.510087078137132242e-02,5.549618262988979117e-02
1.749999999999999889e-01,2.754644929202523795e-02,2.496537449173639664e-02,1.509098173254937343e-02,5.514173834475958463e-02
1.759999999999999898e-01,2.768608773174646709e-02,2.432619854766555553e-02,1.508183751769951245e-02,5.478833860141336248e-02
1.769999999999999907e-01,2.783077822565865889e-02,2.369846238022624285e-02,1.507348153334099952e-02,5.443644920578686458e-02
1.779999999999999916e-01,2.798070459177653263e-02,2.308248012953620712e-02,1.506597029218784481e-02,5.408665475160428365e-02
1.789999999999999925e-01,2.813606876570871884e-02,2.247852124206714888e-02,1.505936792321085731e-02,5.373964952753580021e-02
1.799999999999999933e-01,2.829707641485259759e-02,2.188681517114452260e-02,1.505373498034765639e-02,5.339621838061497233e-02
1.809999999999999942e-01,2.846390880803513143e-02,2.130755719965289272e-02,1.504912369983937848e-02,5.305720573437746473e-02
1.819999999999999951e-01,2.863670717620134254e-02,2.074091475073846710e-02,1.504558146210131266e-02,5.272348272935793723e-02
1.829999999999999960e-01,2.881557526274875977e-02,2.018703296661904581e-02,1.504315673478026985e-02,5.239592080576576522e-02
1.839999999999999969e-01,2.900058386778768191e-02,1.964603818103337340e-02,1.504189551959044489e-02,5.207536889031899596e-02
1.849999999999999978e-01,2.919177545325821882e-02,1.911803783541408952e-02,1.504182875916067544e-02,5.176263424744727282e-02
1.859999999999999987e-01,2.938917894091701982e-02,1.860311639016506285e-02,1.504296439354075796e-02,5.145847267840289452e-02
1.869999999999999996e-01,2.959282776739760590e-02,1.810132976452777376e-02,1.504528943512544424e-02,5.116358358515146060e-02
1.880000000000000004e-01,2.980276571893322388e-02,1.761270270220202314e-02,1.504877584041368344e-02,5.087859847784548251e-02
1.890000000000000013e-01,3.001904505728572939e-02,1.713723242731610488e-02,1.505338494564891980e-02,5.060406388045803755e-02
1.900000000000000022e-01,3.024173122479364637e-02,1.667489735126094844e-02,1.505907298581197172e-02,5.034043287395447569e-02
1.910000000000000031e-01,3.047090542479922309e-02,1.622566523959237395e-02,1.506579959755446722e-02,5.008807461902446689e-02
1.920000000000000040e-01,3.070664707612665370e-02,1.578949667980140623e-02,1.507353195314863753e-02,4.984729647010685549e-02
1.930000000000000049e-01,3.094900619924528112e-02,1.536634299352472414e-02,1.508223955121141061e-02,4.961836789738518355e-02
1.940000000000000058e-01,3.119798710448778989e-02,1.495613994008639959e-02,1.509188827030817463e-02,4.940154158231051251e-02
1.950000000000000067e-01,3.145354552458808073e-02,1.455880188157263229e-02,1.510244045112531762e-02,4.919706882055103342e-02
1.960000000000000075e-01,3.171559104503775262e-02,1.417422167309817689e-02,1.511385512766988230e-02,4.900520669447579886e-02
1.970000000000000084e-01,3.198398978938509635e-02,1.380227631313627606e-02,1.512608475712350596e-02,4.882622357977783878e-02
1.980000000000000093e-01,3.225856866334234074e-02,1.344283337775172178e-02,1.513907515694616276e-02,4.866040973809800801e-02
1.990000000000000102e-01,3.253912591461001480e-02,1.309575487969756938e-02,1.515277136898271308e-02,4.850808845894867549e-02
2.000000000000000111e-01,3.282544618626487276e-02,1.276089826946577056e-02,1.516711947299942236e-02,4.836962035564166401e-02
2.010000000000000120e-01,3.311731117927532719e-02,1.243811332688847353e-02,1.518206252715611874e-02,4.824539606537466691e-02
2.020000000000000129e-01,3.341449874000662623e-02,1.212723732694935205e-02,1.519754043048453067e-02,4.813581756804861250e-02
2.030000000000000138e-01,3.371676977404843012e-02,1.182809413009635810e-02,1.521348884628542786e-02,4.804127856567111388e-02
2.039999999999999869e-01,3.402385024041408579e-02,1.154049516933685314e-02,1.522983042563470259e-02,4.796215361071197447e-02
2.049999999999999878e-01,3.433542238075015796e-02,1.126423864320842336e-02,1.524646815225121424e-02,4.789879409792452414e-02
2.059999999999999887e-01,3.465113257805665231e-02,1.099910896375012707e-02,1.526328550455908865e-02,4.785152389597687600e-02
2.069999999999999896e-01,3.497060589562713678e-02,1.074487648312865036e-02,1.528014833656374943e-02,4.782062727806128677e-02
2.079999999999999905e-01,3.529345805780203377e-02,1.050129699347307141e-02,1.529690672081159171e-02,4.780632817165402643e-02
2.089999999999999913e-01,3.561930719504832060e-02,1.026811333329721854e-02,1.531339829240634630e-02,4.780877260089496511e-02
2.099999999999999922e-01,3.594778459942449961e-02,1.004505776494562554e-02,1.532945315588492285e-02,4.782802484766755097e-02
2.109999999999999931e-01,3.627853430781959043e-02,9.831851406683040501e-03,1.534489483655932830e-02,4.786407173693297407e-02
2.119999999999999940e-01,3.661119439698670708e-02,9.628201587687826649e-03,1.535953734869376260e-02,4.791682602687913350e-02
2.129999999999999949e-01,3.694537308686183380e-02,9.433801240244069769e-03,1.537319144837776853e-02,4.798612920352884198e-02
2.139999999999999958e-01,3.728063971614364869e-02,9.248332604678322771e-03,1.538568341921264793e-02,4.807175723468138512e-02
2.149999999999999967e-01,3.761653168973316114e-02,9.071472662321364983e-03,1.539687081757720732e-02,4.817343060618466816e-02
2.159999999999999976e-01,3.795257004247756805e-02,8.902894772425494832e-03,1.540664491349165964e-02,4.829082464024148091e-02
2.169999999999999984e-01,3.828827714130231957e-02,8.742266187375518152e-03,1.541492517860551352e-02,4.842357743933417558e-02
2.179999999999999993e-01,3.862318168541568203e-02,8.589247463626830878e-03,1.542165241444515972e-02,4.857130884471493049e-02
2.190000000000000002e-01,3.895680530044273032e-02,8.443495087887992537e-03,1.542678258744505787e-02,4.873366082945948530e-02
2.200000000000000011e-01,3.928864690149572181e-02,8.304662733187176751e-03,1.543028226511081701e-02,4.891033929499637861e-02
2.210000000000000020e-01,3.961817559901734120e-02,8.172402543338706110e-03,1.543212411025444292e-02,4.910113095919464016e-02
2.220000000000000029e-01,3.994483243982639015e-02,8.046371949069699644e-03,1.543228116543182704e-02,4.930589198901536713e-02
2.230000000000000038e-01,4.026804448621480736e-02,7.926247345021135773e-03,1.543072071117907243e-02,4.952451349918333967e-02
2.240000000000000047e-01,4.058724662924176330e-02,7.811740948661669362e-03,1.542739677843980688e-02,4.975687425182041823e-02
2.250000000000000056e-01,4.090190063233838796e-02,7.702611373298045953e-03,1.542224241569435141e-02,5.000281371015827953e-02
2.260000000000000064e-01,4.121150059864563814e-02,7.598662955980380745e-03,1.541516636563382628e-02,5.026214716142096001e-02
2.270000000000000073e-01,4.151555517131005901e-02,7.499739211528981889e-03,1.540605572198464925e-02,5.053469602592534915e-02
2.280000000000000082e-01,4.181356450920864498e-02,7.405714434389466111e-03,1.539478280257547231e-02,5.082030359212554721e-02
2.290000000000000091e-01,4.210502006172169021e-02,7.316484293649378086e-03,1.538121428788526146e-02,5.111883966919964634e-02
2.300000000000000100e-01,4.238941617896833935e-02,7.231956335543751092e-03,1.536521930167712539e-02,5.143020089502758213e-02
2.310000000000000109e-01,4.266624805560489953e-02,7.152040668839765823e-03,1.534667544522885958e-02,5.175430529178194627e-02
2.320000000000000118e-01,4.293500168394972366e-02,7.076642333071579173e-03,1.532547648956695749e-02,5.209108753297678196e-02
2.330000000000000127e-01,4.319516000199215278e-02,7.005656540761451105e-03,1.530154009863164861e-02,5.244050063527909422e-02
2.340000000000000135e-01,4.344622992384942345e-02,6.938966713734858946e-03,1.527480935824101008e-02,5.280251324846614580e-02
2.349999999999999867e-01,4.368777535650043148e-02,6.876445662790996692e-03,1.524525177060200194e-02,5.317709117302912847e-02
2.359999999999999876e-01,4.391945129063772740e-02,6.817959925488349324e-03,1.521286629483895730e-02,5.356417107162597668e-02
2.369999999999999885e-01,4.414104140489078648e-02,6.763375983332971762e-03,1.517769513449502075e-02,5.396363775954642755e-02
2.379999999999999893e-01,4.435249266856781947e-02,6.712566521341621455e-03,1.513982100427151319e-02,5.437530729716250760e-02
2.389999999999999902e-01,4.455392854947740067e-02,6.665413437352673415e-03,1.509934365924706957e-02,5.479892298977377674e-02
2.399999999999999911e-01,4.474562225827868195e-02,6.621804247233359017e-03,1.505635528593240666e-02,5.523416721760005671e-02
2.409999999999999920e-01,4.492794586533550849e-02,6.581624783877249897e-03,1.501093003847321639e-02,5.568067364960426618e-02
2.419999999999999929e-01,4.510133224442271216e-02,6.544753873561100568e-03,1.496312213164996581e-02,5.613802594334364737e-02
2.429999999999999938e-01,4.526625247253106971e-02,6.511061749913480551e-03,1.491296673090687815e-02,5.660574315094763637e-02
2.439999999999999947e-01,4.542319032599746037e-02,6.480413552665876577e-03,1.486048189146547439e-02,5.708326043747296435e-02
2.449999999999999956e-01,4.557261839552032012e-02,6.452677523646093045e-03,1.480566909839157487e-02,5.756991410624909961e-02
2.459999999999999964e-01,4.571499267133081329e-02,6.427732729378387785e-03,1.474852101768337441e-02,5.806493606487004439e-02
2.469999999999999973e-01,4.585076192413718027e-02,6.405472549112202485e-03,1.468904466556917102e-02,5.856746198829754918e-02
2.479999999999999982e-01,4.598036811665143914e-02,6.385804932872166800e-03,1.462728652076263937e-02,5.907654758378257792e-02
2.489999999999999991e-01,4.610423433412008665e-02,6.368652173932512310e-03,1.456333806581282600e-02,5.959117977412237144e-02
2.500000000000000000e-01,4.622275660919874379e-02,6.353953417976181302e-03,1.449732140151241237e-02,6.011028468070843400e-02
2.510000000000000009e-01,4.633629815925689732e-02,6.341669948654688957e-03,1.442937553898494298e-02,6.063274210950320153e-02
2.520000000000000018e-01,4.644518647661177724e-02,6.331786871374343179e-03,1.435965510402993292e-02,6.115740178038801822e-02
2.530000000000000027e-01,4.654972491053264300e-02,6.324307757120761417e-03,1.428833259250926642e-02,6.168309324882278316e-02
2.540000000000000036e-01,4.665020698236084506e-02,6.319245734975573701e-03,1.421559100544645196e-02,6.220863510352208497e-02
2.550000000000000044e-01,4.674691267850415721e-02,6.316614492294936496e-03,1.414160745236472429e-02,6.273284914672262735e-02
2.560000000000000053e-01,4.684009195857868207e-02,6.316422011558101186e-03,1.406654160379453185e-02,6.325457090995156850e-02
2.570000000000000062e-01,4.692995738343037210e-02,6.318668647479950239e-03,1.399053570261316222e-02,6.377264794846003448e-02
2.580000000000000071e-01,4.701669255405158815e-02,6.323347486124652680e-03,1.391372019730167942e-02,6.428593466194000572e-02
2.590000000000000080e-01,4.710045853844948421e-02,6.330443759555930139e-03,1.383621835617632884e-02,6.479329584804956188e-02
2.600000000000000089e-01,4.718139169006160816e-02,6.339933148606397006e-03,1.375814532338414699e-02,6.529361673897469964e-02
2.610000000000000098e-01,4.725962131987920117e-02,6.351781290912093814e-03,1.367960270008563434e-02,6.578581073708360261e-02
2.620000000000000107e-01,4.733531599498157910e-02,6.365944711941272545e-03,1.360067764534278294e-02,6.626882124296055998e-02
2.630000000000000115e-01,4.740871731901308977e-02,6.382371869946454682e-03,1.352144866898650696e-02,6.674161983881894689e-02
2.640000000000000124e-01,4.748013125223656677e-02,6.401004716337979454e-03,1.344198799790040366e-02,6.720319964587481709e-02
2.650000000000000133e-01,4.754988386461685840e-02,6.421780586602705843e-03,1.336235748203052145e-02,6.765255674283242315e-02
2.660000000000000142e-01,4.761827053471355542e-02,6.444632008542236848e-03,1.328261000500595770e-02,6.808865921055473613e-02
2.670000000000000151e-01,4.768553527606245179e-02,6.469484693330130459e-03,1.320280167271202336e-02,6.851041281832402630e-02
2.680000000000000160e-01,4.775187915711394393e-02,6.496256878779235744e-03,1.312299995425996249e-02,6.891663339053082094e-02
2.690000000000000169e-01,4.781746653460060281e-02,6.524859563414390703e-03,1.304327562484768055e-02,6.930603443946721509e-02
2.700000000000000178e-01,4.788242688023956750e-02,6.555195246864329098e-03,1.296368892289533753e-02,6.967723936852449063e-02
2.710000000000000187e-01,4.794686485020055455e-02,6.587156805181497259e-03,1.288428509379357240e-02,7.002881797516311013e-02
2.720000000000000195e-01,4.801087017730937961e-02,6.620629348193584479e-03,1.280509861460868773e-02,7.035932920594546724e-02
2.730000000000000204e-01,4.807452144743010886e-02,6.655493604489303404e-03,1.272615648301960931e-02,7.066735517516416210e-02
2.740000000000000213e-01,4.813787916333920475e-02,6.691626715225422288e-03,1.264747626747376313e-02,7.095152629000914257e-02
2.750000000000000222e-01,4.820096166811622951e-02,6.728900576966402071e-03,1.256906351773108554e-02,7.121053816807770831e-02
2.760000000000000231e-01,4.826372455639103137e-02,6.767181750493500396e-03,1.249091983345113240e-02,7.144316409267363610e-02
2.770000000000000240e-01,4.832605721918666747e-02,6.806333880230495612e-03,1.241306353540667408e-02,7.164827525986594559e-02
2.780000000000000249e-01,4.838778455392883648e-02,6.846220602065767984e-03,1.233554026121986419e-02,7.182487292573284943e-02
2.790000000000000258e-01,4.844867922577547614e-02,6.886706427334912499e-03,1.225840841167500153e-02,7.197212165048506860e-02
2.800000000000000266e-01,4.850848793269796344e-02,6.927654540327343735e-03,1.218171910487936618e-02,7.208937033676281192e-02
2.810000000000000275e-01,4.856694324360966153e-02,6.968925380213941007e-03,1.210550884328300686e-02,7.217615472843395830e-02
2.819999999999999729e-01,4.862375335921374775e-02,7.010379554735460435e-03,1.202980161020112890e-02,7.223218390856846194e-02
2.829999999999999738e-01,4.867859824688688247e-02,7.051882272560599726e-03,1.195461377780573410e-02,7.225732220910502379e-02
2.839999999999999747e-01,4.873113527764417335e-02,7.093306165117005749e-03,1.187995751746461111e-02,7.225158236918573229e-02
2.849999999999999756e-01,4.878100024307923527e-02,7.134533268156989863e-03,1.180584477633070742e-02,7.221513343819346842e-02
2.859999999999999765e-01,4.882780752408813485e-02,7.175455649173352081e-03,1.173229359926788833e-02,7.214830840993100014e-02
2.869999999999999774e-01,4.887114185462095722e-02,7.215974131418649400e-03,1.165932644531279816e-02,7.205159968107652246e-02
2.879999999999999782e-01,4.891053836735666238e-02,7.255999722754335503e-03,1.158695808087953534e-02,7.192564659131048255e-02
2.889999999999999791e-01,4.894548871046009580e-02,7.295458662306673371e-03,1.151518721696757376e-02,7.177121945249401169e-02
2.899999999999999800e-01,4.897550317578845680e-02,7.334292431519097433e-03,1.144400170950356579e-02,7.158919501815000364e-02
2.909999999999999809e-01,4.900019951811694641e-02,7.372448235427213510e-03,1.137339609560867638e-02,7.138052114919897495e-02
2.919999999999999818e-01,4.901935087366197930e-02,7.409867697530717751e-03,1.130339012082113778e-02,7.114617291697516999e-02
2.929999999999999827e-01,4.903284900534923829e-02,7.446481875657261565e-03,1.123403385389345858e-02,7.088710109758004918e-02
2.939999999999999836e-01,4.904062083254651788e-02,7.482211894160096556e-03,1.116540162188570974e-02,7.060418777873526952e-02
2.949999999999999845e-01,4.904258414019612572e-02,7.516974054467087142e-03,1.109758662016624604e-02,7.029824160640764374e-02
2.959999999999999853e-01,4.903866979762996903e-02,7.550691709336499260e-03,1.103069554538061922e-02,6.997004336269634084e-02
2.969999999999999862e-01,4.902887376288411064e-02,7.583309454939276238e-03,1.096484008655082554e-02,6.962040687796097749e-02
2.979999999999999871e-01,4.901330104274343596e-02,7.614801245876303727e-03,1.090013039873466254e-02,6.925022118778280389e-02
2.989999999999999880e-01,4.899216856119879837e-02,7.645171707673889192e-03,1.083667183909370856e-02,6.886047785060626925e-02
2.999999999999999889e-01,4.896575340327750936e-02,7.674452920275080109e-03,1.077456121128897611e-02,6.845229269338393152e-02
3.009999999999999898e-01,4.893432213522588836e-02,7.702696620741001331e-03,1.071388300695092638e-02,6.802691786668037255e-02
3.019999999999999907e-01,4.889809077787779512e-02,7.729965446195427060e-03,1.065471045029258920e-02,6.758574573335750235e-02
3.029999999999999916e-01,4.885722056193650409e-02,7.756328311806009665e-03,1.059711186218236477e-02,6.713031101369297537e-02
3.039999999999999925e-01,4.881182860161887432e-02,7.781858580751807759e-03,1.054115515619102710e-02,6.666229261991887811e-02
3.049999999999999933e-01,4.876201455408503416e-02,7.806630846885626029e-03,1.048690534843242650e-02,6.618351531035472635e-02
3.059999999999999942e-01,4.870790735002057670e-02,7.830716590623183759e-03,1.043441917696323780e-02,6.569595327021710007e-02
3.069999999999999951e-01,4.864971187315176443e-02,7.854180884441093816e-03,1.038374428208209237e-02,6.520173258499988023e-02
3.079999999999999960e-01,4.858773053893800792e-02,7.877080724383237267e-03,1.033492269272657561e-02,6.470312398995824166e-02
3.089999999999999969e-01,4.852234704639347973e-02,7.899464972347810046e-03,1.028799117801601840e-02,6.420251953534145128e-02
3.099999999999999978e-01,4.845397341054100832e-02,7.921374992321898387e-03,1.024297676509189348e-02,6.370238479777924623e-02
3.109999999999999987e-01,4.838298763519914558e-02,7.942846598291640123e-03,1.019989250761157810e-02,6.320518820744509825e-02
3.119999999999999996e-01,4.830969999286934685e-02,7.963914581993756028e-03,1.015873733598497003e-02,6.271334415016606434e-02
3.130000000000000004e-01,4.823435851391980056e-02,7.984620129877457312e-03,1.011950195585834683e-02,6.222921077032242398e-02
3.140000000000000013e-01,4.815718098040456391e-02,8.005021716017227465e-03,1.008217755171111202e-02,6.175513276031342064e-02
3.150000000000000022e-01,4.807839616809472805e-02,8.025204533954666264e-03,1.004675896362281808e-02,6.129348216166974339e-02
3.160000000000000031e-01,4.799827835300640028e-02,8.045283557251113604e-03,1.001324206838314322e-02,6.084666331073088075e-02
3.170000000000000040e-01,4.791715774860856591e-02,8.065401114741226757e-03,9.981622530490830841e-03,6.041708038914633122e-02
3.180000000000000049e-01,4.783539764404809436e-02,8.085718758589681074e-03,9.951895348592953647e-03,6.000709102341426210e-02
3.190000000000000058e-01,4.775335543622532403e-02,8.106408528248575801e-03,9.924051208865010062e-03,5.961896993654353105e-02
3.200000000000000067e-01,4.767134968711892601e-02,8.127650274128053742e-03,9.898075700186442782e-03,5.925488903147094200e-02
3.210000000000000075e-01,4.758964150590271752e-02,8.149630044222219358e-03,9.873958325594083332e-03,5.891691062240555360e-02
3.220000000000000084e-01,4.750842952590837026e-02,8.172536262939147228e-03,9.851706498297807535e-03,5.860699131705971593e-02
3.230000000000000093e-01,4.742784944100496974e-02,8.196562512631714106e-03,9.831354442647089603e-03,5.832699900397910614e-02
3.240000000000000102e-01,4.734797675557034236e-02,8.221923149147028834e-03,9.812960395163525945e-03,5.807874418918534259e-02
3.250000000000000111e-01,4.726884292556766259e-02,8.248872899469298497e-03,9.796594574899992677e-03,5.786401735788655742e-02
3.260000000000000120e-01,4.719046143631715901e-02,8.277716080431870432e-03,9.782329810097148415e-03,5.768462199636636978e-02
3.270000000000000129e-01,4.711283864381010655e-02,8.308802586614628949e-03,9.770241767905083960e-03,5.754239376565294106e-02
3.280000000000000138e-01,4.703596200145468420e-02,8.342515451109857802e-03,9.760412133100542301e-03,5.743920297787186158e-02
3.290000000000000147e-01,4.695978973101497950e-02,8.379253382930362468e-03,9.752925688873944829e-03,5.737696174653107717e-02
3.300000000000000155e-01,4.688424734169958918e-02,8.419415708074300120e-03,9.747862704663904851e-03,5.735765429817505506e-02
3.310000000000000164e-01,4.680922326176222004e-02,8.463395163494010290e-03,9.745295341455675539e-03,5.738336119560758647e-02
3.320000000000000173e-01,4.673457261036701588e-02,8.511575301286697370e-03,9.745290340805012885e-03,5.745623825255945227e-02
3.330000000000000182e-01,4.666012335360121555e-02,8.564331421977515110e-03,9.747915971105906852e-03,5.757846663265936415e-02
3.340000000000000191e-01,4.658566689678388106e-02,8.622034995733841509e-03,9.753257035856987070e-03,5.775221846904192435e-02
3.350000000000000200e-01,4.651094077036801999e-02,8.685056756027757785e-03,9.761433674377980457e-03,5.797964423522981164e-02
3.360000000000000209e-01,4.643562478590720216e-02,8.753766586431788177e-03,9.772605278065641873e-03,5.826286231747650896e-02
3.370000000000000218e-01,4.635935594448905434e-02,8.828533582115787384e-03,9.786953570828963236e-03,5.860394788058247845e-02
3.380000000000000226e-01,4.628175606122740537e-02,8.909726838298631657e-03,9.804661418852389509e-03,5.900492490954439145e-02
3.390000000000000235e-01,4.620246073293651778e-02,8.997713068946661813e-03,9.825902291334254537e-03,5.946775726450492794e-02
3.400000000000000244e-01,4.612112576824838744e-02,9.092851533377943260e-03,9.850839411552056446e-03,5.999434002370349767e-02
3.410000000000000253e-01,4.603740133903445886e-02,9.195493078149366215e-03,9.879626691200019822e-03,6.058650037587613030e-02
3.420000000000000262e-01,4.595090909086104597e-02,9.305989311310774656e-03,9.912407698299154427e-03,6.124601119819732958e-02
3.430000000000000271e-01,4.586126614538293261e-02,9.424711058179956191e-03,9.949313754246439170e-03,6.197460898221310993e-02
3.439999999999999725e-01,4.576814667298688410e-02,9.552064591078731834e-03,9.990462239472643405e-03,6.277400046067715955e-02
3.449999999999999734e-01,4.567131829007429339e-02,9.688492323250955454e-03,1.003595612007743797e-02,6.364584879083699798e-02
3.459999999999999742e-01,4.557061363038007046e-02,9.834458223324463871e-03,1.008588684537549407e-02,6.459175288496220302e-02
3.469999999999999751e-01,4.546588346779611989e-02,9.990429791954564751e-03,1.014033989559686225e-02,6.561323430556328939e-02
3.479999999999999760e-01,4.535699312383482257e-02,1.015686697955446756e-02,1.019939931299021149e-02,6.671172394547009166e-02
3.489999999999999769e-01,4.524385263790544481e-02,1.033421997817701547e-02,1.026315110152767676e-02,6.788854470535414520e-02
3.499999999999999778e-01,4.512644817719773521e-02,1.052293068855890239e-02,1.033168724671295821e-02,6.914490253333474556e-02
3.509999999999999787e-01,4.500486285453145219e-02,1.072343275325976682e-02,1.040511002149729046e-02,7.048188981799209663e-02
3.519999999999999796e-01,4.487927549268341115e-02,1.093615072660320160e-02,1.048353794259882822e-02,7.190049010203260205e-02
3.529999999999999805e-01,4.474993447892391257e-02,1.116150119544430559e-02,1.056710926822223597e-02,7.340157443516379110e-02
3.539999999999999813e-01,4.461711563501306183e-02,1.139989473938442244e-02,1.065597435505078946e-02,7.498589028186235239e-02
3.549999999999999822e-01,4.448107433724791948e-02,1.165173497423411739e-02,1.075028282238336096e-02,7.665405254142751423e-02
3.559999999999999831e-01,4.434201790338827137e-02,1.191741395149598960e-02,1.085017624163056235e-02,7.840655023534966184e-02
3.569999999999999840e-01,4.420012280302057506e-02,1.219730771367212238e-02,1.095578505551791752e-02,8.024377313741277995e-02
3.579999999999999849e-01,4.405557272714567818e-02,1.249177515039437934e-02,1.106722726249070865e-02,8.216603764009830502e-02
3.589999999999999858e-01,4.390856861752040485e-02,1.280115811990817712e-02,1.118461056289886228e-02,8.417358399398744417e-02
3.599999999999999867e-01,4.375930869323354372e-02,1.312578094843167183e-02,1.130803927056540925e-02,8.626654726024110542e-02
3.609999999999999876e-01,4.360797406592409331e-02,1.346595125582972577e-02,1.143762187841936354e-02,8.844493050751635332e-02
3.619999999999999885e-01,4.345472508931208511e-02,1.382196170882823635e-02,1.157347103002272747e-02,9.070860194837387924e-02
3.629999999999999893e-01,4.329968949069281509e-02,1.419409182182289168e-02,1.171569786461333293e-02,9.305731242210021903e-02
3.639999999999999902e-01,4.314295984185585742e-02,1.458261206816117983e-02,1.186440822124434392e-02,9.549071193918508282e-02
3.649999999999999911e-01,4.298463769072941032e-02,1.498778926377340899e-02,1.201969860018217186e-02,9.800835395838063124e-02
3.659999999999999920e-01,4.282490330413170343e-02,1.540988904369183614e-02,1.218165273089337995e-02,1.006096962849412080e-01
3.669999999999999929e-01,4.266404550506759652e-02,1.584917269368301199e-02,1.235034779098049748e-02,1.032941100904753440e-01
3.679999999999999938e-01,4.250243524552415469e-02,1.630589050719278427e-02,1.252586817643523871e-02,1.060608989720187301e-01
3.689999999999999947e-01,4.234048053712746729e-02,1.678027895623531232e-02,1.270831592895158013e-02,1.089093221809776385e-01
3.699999999999999956e-01,4.217858677530970934e-02,1.727256335855368793e-02,1.289781404902978768e-02,1.118386150835911225e-01
3.709999999999999964e-01,4.201712592953726899e-02,1.778295936566154714e-02,1.309450158918606943e-02,1.148480113537729136e-01
3.719999999999999973e-01,4.185642419530849478e-02,1.831166957750989324e-02,1.329852102735953716e-02,1.179367753304441380e-01
3.729999999999999982e-01,4.169676870169113092e-02,1.885887898531647330e-02,1.351000536212637951e-02,1.211042273567605326e-01
3.739999999999999991e-01,4.153841113047748029e-02,1.942475255031544598e-02,1.372907132258459860e-02,1.243497335393986686e-01
3.750000000000000000e-01,4.138155991762895725e-02,2.000943361498072268e-02,1.395581945988390998e-02,1.276726583806830628e-01
3.760000000000000009e-01,4.122637825011074564e-02,2.061304354484981907e-02,1.419033776602104426e-02,1.310723003150306432e-01
3.770000000000000018e-01,4.107299248618620502e-02,2.123568389715772831e-02,1.443270380229352487e-02,1.345478395020821838e-01
3.780000000000000027e-01,4.092150275387280295e-02,2.187743729132847481e-02,1.468298430823784112e-02,1.380983222498653185e-01
3.790000000000000036e-01,4.077199343067347548e-02,2.253836280682522397e-02,1.494123421941635256e-02,1.417226636216595281e-01
3.800000000000000044e-01,4.062454382544157527e-02,2.321848786771668269e-02,1.520749502798411992e-02,1.454196265506197405e-01
3.810000000000000053e-01,4.047924503610152852e-02,2.391780242909231913e-02,1.548179137904737504e-02,1.491877862393876653e-01
3.820000000000000062e-01,4.033622157612479914e-02,2.463625938844310817e-02,1.576412834647677313e-02,1.530255520021630011e-01
3.830000000000000071e-01,4.019563765336606892e-02,2.537377994718333779e-02,1.605449271153372090e-02,1.569312954577938846e-01
3.840000000000000080e-01,4.005768350779949361e-02,2.613025591166179620e-02,1.635285880829720484e-02,1.609034845655645807e-01
3.850000000000000089e-01,3.992255807915549848e-02,2.690554444446884019e-02,1.665920232913440518e-02,1.649406735482389086e-01
3.860000000000000098e-01,3.979045216008429003e-02,2.769946289692686373e-02,1.697352175605748234e-02,1.690414174153309912e-01
3.870000000000000107e-01,3.966153772539110500e-02,2.851178858417713000e-02,1.729585384042452156e-02,1.732042391972643258e-01
3.880000000000000115e-01,3.953598083623188070e-02,2.934226074771058637e-02,1.762627202053870454e-02,1.774275840085442757e-01
3.890000000000000124e-01,3.941397096410539924e-02,3.019058386204461972e-02,1.796487388875992602e-02,1.817097489669784460e-01
3.900000000000000133e-01,3.929573386824293524e-02,3.105643862571825370e-02,1.831177029919702284e-02,1.860489007575089060e-01
3.910000000000000142e-01,3.918151851690712673e-02,3.193950959133110001e-02,1.866707694690335553e-02,1.904431372799980093e-01
3.920000000000000151e-01,3.907158190181839186e-02,3.283951122795695371e-02,1.903090323402081147e-02,1.948904674749711019e-01
3.930000000000000160e-01,3.896618617278977542e-02,3.375618013720062260e-02,1.940334363405109980e-02,1.993887370778116008e-01
3.940000000000000169e-01,3.886560242883962263e-02,3.468924303453041480e-02,1.978447513645545386e-02,2.039356263973046424e-01
3.950000000000000178e-01,3.877010890078409766e-02,3.563839297819814539e-02,2.017435331188220660e-02,2.085287698965369030e-01
3.960000000000000187e-01,3.867997428211687044e-02,3.660328355767025754e-02,2.057300619808912628e-02,2.131659228062471878e-01
3.970000000000000195e-01,3.859543410426150012e-02,3.758353710705059081e-02,2.098043243545216069e-02,2.178450596879638324e-01
3.980000000000000204e-01,3.851667863099270117e-02,3.857875981219526657e-02,2.139660257845885094e-02,2.225643429112559579e-01
3.990000000000000213e-01,3.844386754701512032e-02,3.958855503616442312e-02,2.182145918076368665e-02,2.273219746441667855e-01
4.000000000000000222e-01,3.837716354935703095e-02,4.061253362178624676e-02,2.225491517785991094e-02,2.321160154264823861e-01
4.010000000000000231e-01,3.831675847187410860e-02,4.165032370555857288e-02,2.269685157926418576e-02,2.369442802145801941e-01
4.020000000000000240e-01,3.826288966415630766e-02,4.270157597923466414e-02,2.314711509064547312e-02,2.418043602693597527e-01
4.030000000000000249e-01,3.821585475014434297e-02,4.376595384211467293e-02,2.360551586923227349e-02,2.466937210064442942e-01
4.040000000000000258e-01,3.817601782803060895e-02,4.484311099821811086e-02,2.407182775464480895e-02,2.516097827926020436e-01
4.050000000000000266e-01,3.814380490981545552e-02,4.593268815677457179e-02,2.454579526715595233e-02,2.565499241662314578e-01
4.060000000000000275e-01,3.811968601127318362e-02,4.703434807765719677e-02,2.502714713313663325e-02,2.615114050202120288e-01
4.069999999999999729e-01,3.810414577186142099e-02,4.814780939430007151e-02,2.551561046427875540e-02,2.664912590116116364e-01
4.079999999999999738e-01,3.809765843686642450e-02,4.927283054743298446e-02,2.601091784301137397e-02,2.714862604013071889e-01
4.089999999999999747e-01,3.810066719014984504e-02,5.040915370021702840e-02,2.651280138014845689e-02,2.764929834510824191e-01
4.099999999999999756e-01,3.811356372410341226e-02,5.155645472591127015e-02,2.702098166193323339e-02,2.815078119238841881e-01
4.109999999999999765e-01,3.813667959932472845e-02,5.271432377422966692e-02,2.753516973991754907e-02,2.865268527948061639e-01
4.119999999999999774e-01,3.817028589938633448e-02,5.388227033614493428e-02,2.805507910631296203e-02,2.915458579709859777e-01
4.129999999999999782e-01,3.821458935632392889e-02,5.505974554443623242e-02,2.858042531495398261e-02,2.965601945180930676e-01
4.139999999999999791e-01,3.826973047836181724e-02,5.624617160870916399e-02,2.911091236416807684e-02,3.015648230978872357e-01
4.149999999999999800e-01,3.833578947672227483e-02,5.744095155505217487e-02,2.964622566764342840e-02,3.065542586068371045e-01
4.159999999999999809e-01,3.841280002612292716e-02,5.864344691810516319e-02,3.018603487593253185e-02,3.115225387391598044e-01
4.169999999999999818e-01,3.850076358752797800e-02,5.985294431954766431e-02,3.072999770969021133e-02,3.164632653829035358e-01
4.179999999999999827e-01,3.859964827151326355e-02,6.106863580291237853e-02,3.127776253375052357e-02,3.213697336381486358e-01
4.189999999999999836e-01,3.870937560704502955e-02,6.228961834187044661e-02,3.182896606268593304e-02,3.262350830872009499e-01
4.199999999999999845e-01,3.882981087814960791e-02,6.351490364330092397e-02,3.238323612728463002e-02,3.310525543392415782e-01
4.209999999999999853e-01,3.896075746516054761e-02,6.474344328803346982e-02,3.294021735326353728e-02,3.358159482687420039e-01
4.219999999999999862e-01,3.910195487476177123e-02,6.597419684970588782e-02,3.349960553842550731e-02,3.405198929108843031e-01
4.229999999999999871e-01,3.925309112742663559e-02,6.720621910009549893e-02,3.406116486944025384e-02,3.451595425547107632e-01
4.239999999999999880e-01,3.941383413290670129e-02,6.843868176293106675e-02,3.462472127310999709e-02,3.497301496512012497e-01
4.249999999999999889e-01,3.958385792192427310e-02,6.967083003188212498e-02,3.519013283487304466e-02,3.542270858594120941e-01
4.259999999999999898e-01,3.976283379511851013e-02,7.090194394139376355e-02,3.575725089913165539e-02,3.586461775312570488e-01
4.269999999999999907e-01,3.995040231351977555e-02,7.213130242551606119e-02,3.632590036287166452e-02,3.629839320595398267e-01
4.279999999999999916e-01,4.014616255281436979e-02,7.335814163887696693e-02,3.689588952245463627e-02,3.672374618542022517e-01
4.289999999999999925e-01,4.034968756311813759e-02,7.458163975719155070e-02,3.746703085022641544e-02,3.714041530572529948e-01
4.299999999999999933e-01,4.056055218840277921e-02,7.580091030831941079e-02,3.803914832073503755e-02,3.754813908346122941e-01
4.309999999999999942e-01,4.077834359427429806e-02,7.701497909078529325e-02,3.861206268560873900e-02,3.794666518814468481e-01
4.319999999999999951e-01,4.100263966983368202e-02,7.822279264955035727e-02,3.918557883683088799e-02,3.833578474416172721e-01
4.329999999999999960e-01,4.123298184255128757e-02,7.942331356088150329e-02,3.975949981226126889e-02,3.871535042989657227e-01
4.339999999999999969e-01,4.146887107887649304e-02,8.061565691649098808e-02,4.033364257993135582e-02,3.908525799399304446e-01
4.349999999999999978e-01,4.170978924903203516e-02,8.179913267121841081e-02,4.090782104087458543e-02,3.944540911769237046e-01
4.359999999999999987e-01,4.195523829823730178e-02,8.297314191145295503e-02,4.148180866205235934e-02,3.979567996504457805e-01
4.369999999999999996e-01,4.220479134516582492e-02,8.413704817902285804e-02,4.205531194009631130e-02,4.013591289061146372e-01
4.380000000000000004e-01,4.245813689577986050e-02,8.529014660171135853e-02,4.262796241968856703e-02,4.046593720706682662e-01
4.390000000000000013e-01,4.271508549767707302e-02,8.643171481885050800e-02,4.319931791805022708e-02,4.078558665952089490e-01
4.400000000000000022e-01,4.297553658490477213e-02,8.756107487283007473e-02,4.376886281734022194e-02,4.109468059159476216e-01
4.410000000000000031e-01,4.323943400585458091e-02,8.867762832780465287e-02,4.433600430856427660e-02,4.139298856595557963e-01
4.420000000000000040e-01,4.350673320646618325e-02,8.978084581629393324e-02,4.490007057105377397e-02,4.168021086966014477e-01
4.430000000000000049e-01,4.377739148683240655e-02,9.087022056858427843e-02,4.546031413131581406e-02,4.195597830029259012e-01
4.440000000000000058e-01,4.405137216530727318e-02,9.194523182152035401e-02,4.601592044741366350e-02,4.221986881396168623e-01
4.450000000000000067e-01,4.432863344562480712e-02,9.300532052954632589e-02,4.656602558609777842e-02,4.247144546400855591e-01
4.460000000000000075e-01,4.460909693496670214e-02,9.404984839894665882e-02,4.710973981061007676e-02,4.271030931837573319e-01
4.470000000000000084e-01,4.489262906775889211e-02,9.507808225121071322e-02,4.764616656320074667e-02,4.293614146251706343e-01
4.480000000000000093e-01,4.517906097208182481e-02,9.608926012026666741e-02,4.817440675362387459e-02,4.314870212410449879e-01
4.490000000000000102e-01,4.546822829910251995e-02,9.708270820501088694e-02,4.869353887780162454e-02,4.334778322208275858e-01
4.500000000000000111e-01,4.576000282429308619e-02,9.805792513067070060e-02,4.920258486114986729e-02,4.353315405335020372e-01
4.510000000000000120e-01,4.605431061610659044e-02,9.901459895641323561e-02,4.970049029130425844e-02,4.370453683383190846e-01
4.520000000000000129e-01,4.635112870197760637e-02,9.995259196987632544e-02,5.018612837052299075e-02,4.386160970332059206e-01
4.530000000000000138e-01,4.665046021553455324e-02,1.008718963912514782e-01,5.065831597291905325e-02,4.400402652201222953e-01
4.540000000000000147e-01,4.695231503317849608e-02,1.017725474321131002e-01,5.111583905626160274e-02,4.413144054559230423e-01
4.550000000000000155e-01,4.725671196625731013e-02,1.026545870943582350e-01,5.155748546266932658e-02,4.424350437221963861e-01
4.560000000000000164e-01,4.756369250011237282e-02,1.035181541760731433e-01,5.198206313176472609e-02,4.433984331830332914e-01
4.570000000000000173e-01,4.787333483765911224e-02,1.043635875408984309e-01,5.238838893212490605e-02,4.442003400900066401e-01
4.580000000000000182e-01,4.818576559720694208e-02,1.051914083593389199e-01,5.277526618771974376e-02,4.448360953170200638e-01
4.590000000000000191e-01,4.850116338051901899e-02,1.060022084479512877e-01,5.314146993961949006e-02,4.453008313439685284e-01
4.600000000000000200e-01,4.881975921065010576e-02,1.067965609587975540e-01,5.348574154995189289e-02,4.455897636922745986e-01
4.610000000000000209e-01,4.914184984606390083e-02,1.075750245049576781e-01,5.380680180470458207e-02,4.456984661616502086e-01
4.620000000000000218e-01,4.946780810236622861e-02,1.083381886602248073e-01,5.410339031863706932e-02,4.456229989288970073e-01
4.630000000000000226e-01,4.979805832827979839e-02,1.090866560196352281e-01,5.437431512808911516e-02,4.453598036828960161e-01
4.640000000000000235e-01,5.013302456978684096e-02,1.098209659716968128e-01,5.461849292706084935e-02,4.449057033135529471e-01
4.650000000000000244e-01,5.047309750796054317e-02,1.105415549024572064e-01,5.483497047224502458e-02,4.442582879329293188e-01
4.660000000000000253e-01,5.081864916416716643e-02,1.112487894307864350e-01,5.502292101517182454e-02,4.434162841374758579e-01
4.670000000000000262e-01,5.117005785972991022e-02,1.119430122549193440e-01,5.518161565256009954e-02,4.423794313796122202e-01
4.680000000000000271e-01,5.152769390736901267e-02,1.126245362510199244e-01,5.531037581628878846e-02,4.411481951188911954e-01
4.689999999999999725e-01,5.189188359600704209e-02,1.132935987440369524e-01,5.540853203857510484e-02,4.397238313962921197e-01
4.699999999999999734e-01,5.226288910564980822e-02,1.139503173993011848e-01,5.547544171315066386e-02,4.381086868598633166e-01
4.709999999999999742e-01,5.264090744908895420e-02,1.145946716444254526e-01,5.551058814868673613e-02,4.363065976354824627e-01
4.719999999999999751e-01,5.302607544020618985e-02,1.152265249836830069e-01,5.551370961287099837e-02,4.343234549749736551e-01
4.729999999999999760e-01,5.341847452658313872e-02,1.158457061993782150e-01,5.548489690372004901e-02,4.321675554855971546e-01
4.739999999999999769e-01,5.381814214857871120e-02,1.164521391795964589e-01,5.542463765196666003e-02,4.298491594614928801e-01
4.749999999999999778e-01,5.422508172769011786e-02,1.170459169953428497e-01,5.533379342155134162e-02,4.273793669695653552e-01
4.759999999999999787e-01,5.463925215813651703e-02,1.176272845683682539e-01,5.521349966208972948e-02,4.247690675616658251e-01
4.769999999999999796e-01,5.506054777201473127e-02,1.181967073432412946e-01,5.506502462871584042e-02,4.220284586161306417e-01
4.779999999999999805e-01,5.548879460169558325e-02,1.187550762714435632e-01,5.488966322453141256e-02,4.191670429293676836e-01
4.789999999999999813e-01,5.592377222135466730e-02,1.193038081828209224e-01,5.468871909502127926e-02,4.161938128753990274e-01
4.799999999999999822e-01,5.636525280463193510e-02,1.198447099815180272e-01,5.446355939185924117e-02,4.131173321732200532e-01
4.809999999999999831e-01,5.681303305207932586e-02,1.203797470564664379e-01,5.421567313787689635e-02,4.099456332118951440e-01
4.819999999999999840e-01,5.726693581889984175e-02,1.209108736392923572e-01,5.394667528454078625e-02,4.066861514935061761e-01
4.829999999999999849e-01,5.772678026337983714e-02,1.214399434020469321e-01,5.365825914772326399e-02,4.033458531884153153e-01
4.839999999999999858e-01,5.819234112812822490e-02,1.219686564194559647e-01,5.335213937329552625e-02,3.999314630896280698e-01
4.849999999999999867e-01,5.866332318791737249e-02,1.224985566128791309e-01,5.303001339418735721e-02,3.964496383466513119e-01
4.859999999999999876e-01,5.913936438950884167e-02,1.230311002727663833e-01,5.269354095139478639e-02,3.929069918651761362e-01
4.869999999999999885e-01,5.962005752122194469e-02,1.235677386284150525e-01,5.234432819296670758e-02,3.893101018555881754e-01
4.879999999999999893e-01,6.010495627678710123e-02,1.241099499013883639e-01,5.198390849377867301e-02,3.856657467792820038e-01
4.889999999999999902e-01,6.059355140072730794e-02,1.246592074567667019e-01,5.161372996635275878e-02,3.819811470949228127e-01
4.899999999999999911e-01,6.108524937905469854e-02,1.252169066922033946e-01,5.123515930632991516e-02,3.782638323103147959e-01
4.909999999999999920e-01,6.157937923579018952e-02,1.257843071631129239e-01,5.084949585626465096e-02,3.745213133109446257e-01
4.919999999999999929e-01,6.207521595619962251e-02,1.263625460785509080e-01,5.045798939703004249e-02,3.707608937523710346e-01
4.929999999999999938e-01,6.257200133554388644e-02,1.269526905236993686e-01,5.006186026598696825e-02,3.669896024150829938e-01
4.939999999999999947e-01,6.306895179693255971e-02,1.275557294231648431e-01,4.966231368611911945e-02,3.632141602747755438e-01
4.949999999999999956e-01,6.356524790949380499e-02,1.281724981795746565e-01,4.926053890227546223e-02,3.594409809682819201e-01
4.959999999999999964e-01,6.406000883279243385e-02,1.288036238446616522e-01,4.885769618867801672e-02,3.556761867363900098e-01
4.969999999999999973e-01,6.455227168390591241e-02,1.294495268894100271e-01,4.845490047123898747e-02,3.519256092175073736e-01
4.979999999999999982e-01,6.504099480369252007e-02,1.301104447737125580e-01,4.805320926361983380e-02,3.481947673922961561e-01
4.989999999999999991e-01,6.552508109678896464e-02,1.307864441970821856e-01,4.765362177926590198e-02,3.444888299864637404e-01
5.000000000000000000e-01,6.600341322991709614e-02,1.314774157326371318e-01,4.725708485786274393e-02,3.408125660081003927e-01
5.010000000000000009e-01,6.647490608860753825e-02,1.321830606003752129e-01,4.686449364826614922e-02,3.371702903175012311e-01
5.020000000000000018e-01,6.693857202363445724e-02,1.329028798103189246e-01,4.647668539601210874e-02,3.335658147881136459e-01
5.030000000000000027e-01,6.739356944482331746e-02,1.336361676027401357e-01,4.609443422882857078e-02,3.300024134493269035e-01
5.040000000000000036e-01,6.783922105609177522e-02,1.343820086375252243e-01,4.571844954106425024e-02,3.264828023065139417e-01
5.050000000000000044e-01,6.827501176489661483e-02,1.351392789140777873e-01,4.534937349606291135e-02,3.230091239498720235e-01
5.060000000000000053e-01,6.870055360351966234e-02,1.359066481180385422e-01,4.498777959158463402e-02,3.195829297500450417e-01
5.070000000000000062e-01,6.911551098653305469e-02,1.366825855778274756e-01,4.463418385154149098e-02,3.162051598554791454e-01
5.080000000000000071e-01,6.951952500484245845e-02,1.374653764939230971e-01,4.428906842639065977e-02,3.128761301339599288e-01
5.090000000000000080e-01,6.991217435250163259e-02,1.382531462003882272e-01,4.395289543539324800e-02,3.095955390520658268e-01
5.100000000000000089e-01,7.029297898790744237e-02,1.390438807436372715e-01,4.362609653553251726e-02,3.063624931525040784e-01
5.110000000000000098e-01,7.066142843769653015e-02,1.398354377410539473e-01,4.330905493710087567e-02,3.031755454350635870e-01
5.120000000000000107e-01,7.101700794005813555e-02,1.406255527309105691e-01,4.300210325426558067e-02,3.000327490592455404e-01
5.130000000000000115e-01,7.135920827677035005e-02,1.414118488932656903e-01,4.270553324943283935e-02,2.969317243067543521e-01
5.140000000000000124e-01,7.168751871051831648e-02,1.421918457960653914e-01,4.241960159710159856e-02,2.938697455298274752e-01
5.150000000000000133e-01,7.200141476097067506e-02,1.429629537285811158e-01,4.214453865334279875e-02,2.908438494327739710e-01
5.160000000000000142e-01,7.230035295836215181e-02,1.437224533621077327e-01,4.188057313050585345e-02,2.878508939002760725e-01
5.170000000000000151e-01,7.258376773870801879e-02,1.444674721899495140e-01,4.162796054454695471e-02,2.848874965639015544e-01
5.180000000000000160e-01,7.285106135564282936e-02,1.451949798000845004e-01,4.138699603137755562e-02,2.819499191896405743e-01
5.190000000000000169e-01,7.310159280844222285e-02,1.459018095119157810e-01,4.115800724059102272e-02,2.790340586567788272e-01
5.200000000000000178e-01,7.333467624379626237e-02,1.465846775100246302e-01,4.094133169885049578e-02,2.761356918486189138e-01
5.210000000000000187e-01,7.354957308961634910e-02,1.472402179838069591e-01,4.073729069756234361e-02,2.732508627252870359e-01
5.220000000000000195e-01,7.374546653252177231e-02,1.478650788491348567e-01,4.054618093092231257e-02,2.703760538005817171e-01
5.230000000000000204e-01,7.392145267146657539e-02,1.484560352827590524e-01,4.036828453028762365e-02,2.675081531473514351e-01
5.240000000000000213e-01,7.407656979845309020e-02,1.490100414384679661e-01,4.020386725576911152e-02,2.646444287318879263e-01
5.250000000000000222e-01,7.420984413940932833e-02,1.495241786234407233e-01,4.005315813755012944e-02,2.617824066245738601e-01
5.260000000000000231e-01,7.432033176555670473e-02,1.499955861029203530e-01,3.991634018708315607e-02,2.589197870875033503e-01
5.270000000000000240e-01,7.440713683227778708e-02,1.504215813986572448e-01,3.979355737775287782e-02,2.560546798483734343e-01
5.280000000000000249e-01,7.446939217496445496e-02,1.507999628112820234e-01,3.968491450799273984e-02,2.531858258853348365e-01
5.290000000000000258e-01,7.450623078977468283e-02,1.511292174316864190e-01,3.959046955242235405e-02,2.503124569045209746e-01
5.300000000000000266e-01,7.451679194871727030e-02,1.514085007338412392e-01,3.951023875058530532e-02,2.474341717321173750e-01
5.310000000000000275e-01,7.450026345246536785e-02,1.516375069943983189e-01,3.944422105832256359e-02,2.445511822325847628e-01
5.320000000000000284e-01,7.445592710865796271e-02,1.518163836518661436e-01,3.939243133603297087e-02,2.416645497988910152e-01
5.330000000000000293e-01,7.438318880865016358e-02,1.519457140694067121e-01,3.935492579597395235e-02,2.387759667716946865e-01
5.340000000000000302e-01,7.428159610216579500e-02,1.520264703855213340e-01,3.933181364753234738e-02,2.358872581620470865e-01
5.350000000000000311e-01,7.415085599235053671e-02,1.520599151249723002e-01,3.932326566887588137e-02,2.330001088575009149e-01
5.360000000000000320e-01,7.399087063981166223e-02,1.520475382955671084e-01,3.932952213673328312e-02,2.301162703800579412e-01
5.370000000000000329e-01,7.380178181353623523e-02,1.519910194549502491e-01,3.935088344104829133e-02,2.272380226456842955e-01
5.380000000000000338e-01,7.358399173467734811e-02,1.518921265863032721e-01,3.938768256289922748e-02,2.243684603762957086e-01
5.390000000000000346e-01,7.333815571863819271e-02,1.517526079220070934e-01,3.944025852558629558e-02,2.215114265516248959e-01
5.400000000000000355e-01,7.306516153517736423e-02,1.515742163794090436e-01,3.950893182940531240e-02,2.186712192574234437e-01
5.410000000000000364e-01,7.276609550343111910e-02,1.513588418073441022e-01,3.959398024830484281e-02,2.158522593922871657e-01
5.420000000000000373e-01,7.244219420350284100e-02,1.511086228118016239e-01,3.969563366073608490e-02,2.130588502031030562e-01
5.430000000000000382e-01,7.209478299630178721e-02,1.508260025501749757e-01,3.981409419854458481e-02,2.102950634582553546e-01
5.440000000000000391e-01,7.172520002471186040e-02,1.505137578935996923e-01,3.994956777222614941e-02,2.075647258671970974e-01
5.450000000000000400e-01,7.133472649055523640e-02,1.501750063162607118e-01,4.010229591723180748e-02,2.048715058749079332e-01
5.460000000000000409e-01,7.092455229799622674e-02,1.498131766035298851e-01,4.027257731509548133e-02,2.022190619511413379e-01
5.470000000000000417e-01,7.049577993185711378e-02,1.494319304588645481e-01,4.046076551613894678e-02,1.996111039700256551e-01
5.480000000000000426e-01,7.004944869919840778e-02,1.490350251888150623e-01,4.066724351319375708e-02,1.970512857224632763e-01
5.490000000000000435e-01,6.958654965306020068e-02,1.486261460269169832e-01,4.089239156361102606e-02,1.945430412905833906e-01
5.500000000000000444e-01,6.910801758932400007e-02,1.482087804386307828e-01,4.113656239643464357e-02,1.920895015517529725e-01
5.510000000000000453e-01,6.861472776820322361e-02,1.477861667477738949e-01,4.140006606493035896e-02,1.896934981929118136e-01
5.520000000000000462e-01,6.810752045886366013e-02,1.473612887077611067e-01,4.168316012724602310e-02,1.873575906417971892e-01
5.530000000000000471e-01,6.758723686179003709e-02,1.469368941317351906e-01,4.198604476144801589e-02,1.850840759658163304e-01
5.540000000000000480e-01,6.705474414735339284e-02,1.465155154906295498e-01,4.230886150009924296e-02,1.828749898591065237e-01
5.550000000000000488e-01,6.651094780248496818e-02,1.460994647968929527e-01,4.265169164316669898e-02,1.807321201739366112e-01
5.560000000000000497e-01,6.595679896401135389e-02,1.456908183909014776e-01,4.301456170582650812e-02,1.786570320555741775e-01
5.570000000000000506e-01,6.539330010832132556e-02,1.452914215493072980e-01,4.339746135087933776e-02,1.766510905437339574e-01
5.580000000000000515e-01,6.482150745829690086e-02,1.449029033931226729e-01,4.380036123343798715e-02,1.747154789248033524e-01
5.590000000000000524e-01,6.424252874368788224e-02,1.445266791825531583e-01,4.422321927192106317e-02,1.728512200489934203e-01
5.600000000000000533e-01,6.365751527004111232e-02,1.441639398061105859e-01,4.466597721197412829e-02,1.710592025263809601e-01
5.610000000000000542e-01,6.306764404266837487e-02,1.438156443372193838e-01,4.512855408698229764e-02,1.693402061641038625e-01
5.620000000000000551e-01,6.247408780331911715e-02,1.434825277400555987e-01,4.561083843624875317e-02,1.676949214488514528e-01
5.629999999999999449e-01,6.187798646393095903e-02,1.431651139473521517e-01,4.611267381171059443e-02,1.661239653080109346e-01
5.639999999999999458e-01,6.128043365043757407e-02,1.428637111529012793e-01,4.663383781200237249e-02,1.646278970494644556e-01
5.649999999999999467e-01,6.068246600939421198e-02,1.425783891791358726e-01,4.717402686319566857e-02,1.632072365385886514e-01
5.659999999999999476e-01,6.008505057867051524e-02,1.423089608240931114e-01,4.773285470489244814e-02,1.618624852570050565e-01
5.669999999999999485e-01,5.948909430995220210e-02,1.420549748729655615e-01,4.830985943109193659e-02,1.605941412865823925e-01
5.679999999999999494e-01,5.889548033932024557e-02,1.418157204078331624e-01,4.890451177099924135e-02,1.594026955483046071e-01
5.689999999999999503e-01,5.830511118822009897e-02,1.415902550275137950e-01,4.951622111146478794e-02,1.582886163110944489e-01
5.699999999999999512e-01,5.771894312727392923e-02,1.413774568530677123e-01,5.014433483780831452e-02,1.572523375593916639e-01
5.709999999999999520e-01,5.713799018837375371e-02,1.411760774016725395e-01,5.078813145521330480e-02,1.562942440781908138e-01
5.719999999999999529e-01,5.656328807189132252e-02,1.409847835402849026e-01,5.144681457030889776e-02,1.554146504351584523e-01
5.729999999999999538e-01,5.599584538972134096e-02,1.408021926468435159e-01,5.211951018763150839e-02,1.546138040309660011e-01
5.739999999999999547e-01,5.543661036112897816e-02,1.406268890910459812e-01,5.280526525085389028e-02,1.538919086865491448e-01
5.749999999999999556e-01,5.488645415059030530e-02,1.404574027445164297e-01,5.350304898120994412e-02,1.532491040740788790e-01
5.759999999999999565e-01,5.434617193511944583e-02,1.402921993179701288e-01,5.421176163903923539e-02,1.526853891291115317e-01
5.769999999999999574e-01,5.381650518211194417e-02,1.401297803078652704e-01,5.493024681919616431e-02,1.522005621215684612e-01
5.779999999999999583e-01,5.329816174897232528e-02,1.399688434618186206e-01,5.565729664616853034e-02,1.517942060423308481e-01
5.789999999999999591e-01,5.279181171666762207e-02,1.398083084580662439e-01,5.639164946968831804e-02,1.514656769597217678e-01
5.799999999999999600e-01,5.229807332881786230e-02,1.396471632398731955e-01,5.713199187414534641e-02,1.512140834014181479e-01
5.809999999999999609e-01,5.181750485204057732e-02,1.394843021773652658e-01,5.787697753002080114e-02,1.510382838796986704e-01
5.819999999999999618e-01,5.135059653786713807e-02,1.393184869170181472e-01,5.862525967768097979e-02,1.509369133616962344e-01
5.829999999999999627e-01,5.089775756481601521e-02,1.391484032609943688e-01,5.937551756847938428e-02,1.509084366636336827e-01
5.839999999999999636e-01,5.045930552593057283e-02,1.389727359465321443e-01,6.012646754399269405e-02,1.509512320390526130e-01
5.849999999999999645e-01,5.003546751891796429e-02,1.387902119129191258e-01,6.087686521155311059e-02,1.510637043244028588e-01
5.859999999999999654e-01,4.962639146975435234e-02,1.385995850083017733e-01,6.162550124537417157e-02,1.512443682479032991e-01
5.869999999999999662e-01,4.923215963868825262e-02,1.383995730188629925e-01,6.237119004290046786e-02,1.514918132145671725e-01
5.879999999999999671e-01,4.885279893651250926e-02,1.381888357432766723e-01,6.311275385294952411e-02,1.518045915044662353e-01
5.889999999999999680e-01,4.848828680727463453e-02,1.379661061933080135e-01,6.384900807075324924e-02,1.521811325896226252e-01
5.899999999999999689e-01,4.813855139976433439e-02,1.377304451200123403e-01,6.457875985249987572e-02,1.526196786112404835e-01
5.909999999999999698e-01,4.780347078893654872e-02,1.374814245287031556e-01,6.530082757892916034e-02,1.531182390997144205e-01
5.919999999999999707e-01,4.748288066909788635e-02,1.372191076686674061e-01,6.601407054846016031e-02,1.536746105073765745e-01
5.929999999999999716e-01,4.717658224290277591e-02,1.369438678373915141e-01,6.671741397565686404e-02,1.542864386055190495e-01
5.939999999999999725e-01,4.688434072124919583e-02,1.366561503319194959e-01,6.740986358998883599e-02,1.549512666602347599e-01
5.949999999999999734e-01,4.660588824842648581e-02,1.363562799615687660e-01,6.809050640236585794e-02,1.556665506124254861e-01
5.959999999999999742e-01,4.634093508304758247e-02,1.360443829893001055e-01,6.875849577628954934e-02,1.564296544667214128e-01
5.969999999999999751e-01,4.608917389343493431e-02,1.357203988938135708e-01,6.941302491244760731e-02,1.572378487858857588e-01
5.979999999999999760e-01,4.585027561740217389e-02,1.353841119222091161e-01,7.005329716337527213e-02,1.580883136542713951e-01
5.989999999999999769e-01,4.562388158602154187e-02,1.350351734267721815e-01,7.067850727937573241e-02,1.589781181643883379e-01
5.999999999999999778e-01,4.540958884756186170e-02,1.346731279550061333e-01,7.128784338102238383e-02,1.599041708078605684e-01
6.009999999999999787e-01,4.520693731985306330e-02,1.342974665321328420e-01,7.188049804884479033e-02,1.608631795429408262e-01
6.019999999999999796e-01,4.501541307863083513e-02,1.339077074360427999e-01,7.245566128421612739e-02,1.618516347040154790e-01
6.029999999999999805e-01,4.483445727223056565e-02,1.335034691091152304e-01,7.301248168619928203e-02,1.628657979071360118e-01
6.039999999999999813e-01,4.466346216009914327e-02,1.330845081857175705e-01,7.355001942116035085e-02,1.639017417859217063e-01
6.049999999999999822e-01,4.450176018034372738e-02,1.326507285820583415e-01,7.406722774591018021e-02,1.649554833205851279e-01
6.059999999999999831e-01,4.434862188641603559e-02,1.322021750480851521e-01,7.456296525786176854e-02,1.660231457856699566e-01
6.069999999999999840e-01,4.420326867724740094e-02,1.317390263746698320e-01,7.503601126937212151e-02,1.671010901506785606e-01
6.079999999999999849e-01,4.406489012558390678e-02,1.312615954569047449e-01,7.548507358959954949e-02,1.681860119303205114e-01
6.089999999999999858e-01,4.393264464056240159e-02,1.307702966814870138e-01,7.590880903003680014e-02,1.692749583816865466e-01
6.099999999999999867e-01,4.380564439727288595e-02,1.302655699134729339e-01,7.630586813453761608e-02,1.703652481420167841e-01
6.109999999999999876e-01,4.368295232926166366e-02,1.297479021530606458e-01,7.667494054798351666e-02,1.714543677585530224e-01
6.119999999999999885e-01,4.356360697860136438e-02,1.292180264945278767e-01,7.701477884672879026e-02,1.725399099398943759e-01
6.129999999999999893e-01,4.344665882924059891e-02,1.286770625228067788e-01,7.732420476497331441e-02,1.736195613154620232e-01
6.139999999999999902e-01,4.333119667251354723e-02,1.281263796900369845e-01,7.760210799172503893e-02,1.746911210550911586e-01
6.149999999999999911e-01,4.321636888588916564e-02,1.275673337136717378e-01,7.784744420169578683e-02,1.757525284785544373e-01
6.159999999999999920e-01,4.310140648577149430e-02,1.270011110452601566e-01,7.805923785817188432e-02,1.768018925129895280e-01
6.169999999999999929e-01,4.298564543127044585e-02,1.264286936692529117e-01,7.823659539295256538e-02,1.778375213007632460e-01
6.179999999999999938e-01,4.286855822875512700e-02,1.258508537000237737e-01,7.837873292954446180e-02,1.788579118971239668e-01
6.189999999999999947e-01,4.274978597669316926e-02,1.252681528295385982e-01,7.848501882520432515e-02,1.798616363887802494e-01
6.199999999999999956e-01,4.262913914932010828e-02,1.246809828720236019e-01,7.855502212623372005e-02,1.808471483240909061e-01
6.209999999999999964e-01,4.250657135119272761e-02,1.240896689645471368e-01,7.858854868827293283e-02,1.818126263391077191e-01
6.219999999999999973e-01,4.238215323966079001e-02,1.234945988147919393e-01,7.858565816706683527e-02,1.827559189137679951e-01
6.229999999999999982e-01,4.225604689930043123e-02,1.228963046530911762e-01,7.854666776791308092e-02,1.836745567891003850e-01
6.239999999999999991e-01,4.212848221304736629e-02,1.222954376652165276e-01,7.847214288469148147e-02,1.845657845263618535e-01
6.250000000000000000e-01,4.199975567121698450e-02,1.216926545040205310e-01,7.836287119853239946e-02,1.854265775798124016e-01
6.260000000000000009e-01,4.187023857018733891e-02,1.210885225079559174e-01,7.821981867381000431e-02,1.862536311211456796e-01
6.270000000000000018e-01,4.174036599894532379e-02,1.204835174724726288e-01,7.804407501169072225e-02,1.870433541190373583e-01
6.280000000000000027e-01,4.161061504085782764e-02,1.198780795820179879e-01,7.783680393475676806e-02,1.877918950339475812e-01
6.290000000000000036e-01,4.148147944768994233e-02,1.192726633331482461e-01,7.759920058707428514e-02,1.884951765340776020e-01
6.300000000000000044e-01,4.135343489070587158e-02,1.186677588086849922e-01,7.733245031613515674e-02,1.891489448431076803e-01
6.310000000000000053e-01,4.122690971419264161e-02,1.180638876915591495e-01,7.703769381063042820e-02,1.897488799025195128e-01
6.320000000000000062e-01,4.110227779107701596e-02,1.174615684203966504e-01,7.671600678530092476e-02,1.902907872540271772e-01
6.330000000000000071e-01,4.097986871880029275e-02,1.168612554443188151e-01,7.636839315401157402e-02,1.907708510398350432e-01
6.340000000000000080e-01,4.085997853727817847e-02,1.162633251851673405e-01,7.599578180403894490e-02,1.911858883170853285e-01
6.350000000000000089e-01,4.074286699096561770e-02,1.156681536127118631e-01,7.559901686113733310e-02,1.915335128200070236e-01
6.360000000000000098e-01,4.062874279238924691e-02,1.150761741153001616e-01,7.517884579936751077e-02,1.918121293597700450e-01
6.370000000000000107e-01,4.051775590987041764e-02,1.144878120546295591e-01,7.473592616018846779e-02,1.920207833616001669e-01
6.380000000000000115e-01,4.041001126497947848e-02,1.139033740855591448e-01,7.427085747478524846e-02,1.921589927482279525e-01
6.390000000000000124e-01,4.030558965100004137e-02,1.133230155236439191e-01,7.378421704995023755e-02,1.922266512912800263e-01
6.400000000000000133e-01,4.020455979521045387e-02,1.127468021928785674e-01,7.327658494741820516e-02,1.922239994931731200e-01
6.410000000000000142e-01,4.010699483917292557e-02,1.121748093569592958e-01,7.274856560146139572e-02,1.921516337356501403e-01
6.420000000000000151e-01,4.001299695475989820e-02,1.116071923309181896e-01,7.220081204486016035e-02,1.920105343451176949e-01
6.430000000000000160e-01,3.992270118920514949e-02,1.110441785589592056e-01,7.163404598184554273e-02,1.918020812294153332e-01
6.440000000000000169e-01,3.983625134795954620e-02,1.104859815416349145e-01,7.104906577127949319e-02,1.915280181632904866e-01
6.450000000000000178e-01,3.975377911646670731e-02,1.099327037114018052e-01,7.044674168056384855e-02,1.911903670797298616e-01
6.460000000000000187e-01,3.967540059297172683e-02,1.093842965066982587e-01,6.982800316884205105e-02,1.907913244219884008e-01
6.470000000000000195e-01,3.960121901208551315e-02,1.088405788246167849e-01,6.919382556577524657e-02,1.903331644684057022e-01
6.480000000000000204e-01,3.953133440031565693e-02,1.083012639397743643e-01,6.854522120045915268e-02,1.898181721070542616e-01
6.490000000000000213e-01,3.946585422802561388e-02,1.077659655954155277e-01,6.788323590519068640e-02,1.892486206471201415e-01
6.500000000000000222e-01,3.940488141767198998e-02,1.072341952099150342e-01,6.720894826067169703e-02,1.886267839315660111e-01
6.510000000000000231e-01,3.934849011882818326e-02,1.067053572103991987e-01,6.652346318898340327e-02,1.879549458454435051e-01
6.520000000000000240e-01,3.929671960119224261e-02,1.061787348198727360e-01,6.582789508208881923e-02,1.872353716649014788e-01
6.530000000000000249e-01,3.924957482249518542e-02,1.056534651018686960e-01,6.512335066581213805e-02,1.864702381422128352e-01
6.540000000000000258e-01,3.920701483796155268e-02,1.051285151744385804e-01,6.441092574923192038e-02,1.856615578124070631e-01
6.550000000000000266e-01,3.916894275422699856e-02,1.046026867815063738e-01,6.369171234188653052e-02,1.848111330121583462e-01
6.560000000000000275e-01,3.913520505445945707e-02,1.040746636095913752e-01,6.296680270101039090e-02,1.839205287810032341e-01
6.570000000000000284e-01,3.910559567360733652e-02,1.035430746750850006e-01,6.223729205193431063e-02,1.829910468793672085e-01
6.580000000000000293e-01,3.907986345261091343e-02,1.030065441722436415e-01,6.150428348444480359e-02,1.820237242264377830e-01
6.590000000000000302e-01,3.905771262467996191e-02,1.024637139863618512e-01,6.076887762709416718e-02,1.810194044180939432e-01
6.600000000000000311e-01,3.903879131756433224e-02,1.019132188389515609e-01,6.003213583521823521e-02,1.799789167413951563e-01
6.610000000000000320e-01,3.902268615240768457e-02,1.013536444833518374e-01,5.929504081583199249e-02,1.789032572900726425e-01
6.620000000000000329e-01,3.900894075210291356e-02,1.007835791464812281e-01,5.855848222087323141e-02,1.777935853564757418e-01
6.630000000000000338e-01,3.899708479287290058e-02,1.002018159353405546e-01,5.782326058251685552e-02,1.766510771400369717e-01
6.640000000000000346e-01,3.898664273582128081e-02,9.960759089956534862e-02,5.709008895770402436e-02,1.754768311732344266e-01
6.650000000000000355e-01,3.897711742136817509e-02,9.900067008673509028e-02,5.635958961438723019e-02,1.742718454069302758e-01
6.660000000000000364e-01,3.896796853525009985e-02,9.838124419043474400e-02,5.563229520630606773e-02,1.730369713946869614e-01
6.670000000000000373e-01,3.895860314590220835e-02,9.774974550203034684e-02,5.490866065222844983e-02,1.717728535952542102e-01
6.680000000000000382e-01,3.894838791512836990e-02,9.710667647218274023e-02,5.418908836433534992e-02,1.704799462594528414e-01
6.690000000000000391e-01,3.893668415856117726e-02,9.645247566728329391e-02,5.347396274073539651e-02,1.691586386057434277e-01
6.700000000000000400e-01,3.892289480985650085e-02,9.578746077992741914e-02,5.276368133311382103e-02,1.678094283300397838e-01
6.710000000000000409e-01,3.890649962494888148e-02,9.511185495575168181e-02,5.205867521863951491e-02,1.664330684935665938e-01
6.720000000000000417e-01,3.888706112046224489e-02,9.442582793418267950e-02,5.135942428719558056e-02,1.650306345972381850e-01
6.730000000000000426e-01,3.886421679731828782e-02,9.372950284199382809e-02,5.066647035899319446e-02,1.636034949013115691e-01
6.740000000000000435e-01,3.883768163701213638e-02,9.302296484959898804e-02,4.998041784768463003e-02,1.621532025301636037e-01
6.750000000000000444e-01,3.880725337375350026e-02,9.230634369079761259e-02,4.930191538351145347e-02,1.606813407457479970e-01
6.760000000000000453e-01,3.877280134370433839e-02,9.157997032716230779e-02,4.863162077714944243e-02,1.591893847813433405e-01
6.770000000000000462e-01,3.873423503421246500e-02,9.084450232567138628e-02,4.797015907434958731e-02,1.576786744246953809e-01
6.780000000000000471e-01,3.869146809597992509e-02,9.010093281035864987e-02,4.731809768994021947e-02,1.561505393614205650e-01
6.790000000000000480e-01,3.864441019361783414e-02,8.935050921925334622e-02,4.667595130051548774e-02,1.546065081631533555e-01
6.800000000000000488e-01,3.859298919502999331e-02,8.859462403399889774e-02,4.604419611706377091e-02,1.530484371207884442e-01
6.810000000000000497e-01,3.853717037743967927e-02,8.783471231808162583e-02,4.542326873995054110e-02,1.514784320938060702e-01
6.820000000000000506e-01,3.847696535479485508e-02,8.707220705251035586e-02,4.481354986054544853e-02,1.498986539312081312e-01
6.830000000000000515e-01,3.841243992283779191e-02,8.630862473500294785e-02,4.421535224396871272e-02,1.483111827615710698e-01
6.840000000000000524e-01,3.834370723386809621e-02,8.554573130669912429e-02,4.362892472471521788e-02,1.467179507317615261e-01
6.850000000000000533e-01,3.827089610542381420e-02,8.478559437999272363e-02,4.305446567038730826e-02,1.451207197664237669e-01
6.860000000000000542e-01,3.819412175303863594e-02,8.403046502727887224e-02,4.249213658921030534e-02,1.435211519483639286e-01
6.870000000000000551e-01,3.811349006879596879e-02,8.328265170425132313e-02,4.194206713346408655e-02,1.419208997830030683e-01
6.879999999999999449e-01,3.802911663851858692e-02,8.254448355256074898e-02,4.140434831762968004e-02,1.403215796435126894e-01
6.889999999999999458e-01,3.794113287853161098e-02,8.181831945782967741e-02,4.087903203062185492e-02,1.387246807615658550e-01
6.899999999999999467e-01,3.784968506623228451e-02,8.110658170141843426e-02,4.036614308968014542e-02,1.371315575196213610e-01
6.909999999999999476e-01,3.775492512487185065e-02,8.041179615981290663e-02,3.986567725080648189e-02,1.355435150957381429e-01
6.919999999999999485e-01,3.765698669246645564e-02,7.973657043524534638e-02,3.937758324569785168e-02,1.339618952065080582e-01
6.929999999999999494e-01,3.755596272918550887e-02,7.908350951382528415e-02,3.890175782225691048e-02,1.323880839337568671e-01
6.939999999999999503e-01,3.745189719134812967e-02,7.845515096021238310e-02,3.843805414779649654e-02,1.308234298552479191e-01
6.949999999999999512e-01,3.734478282137937422e-02,7.785394972279949255e-02,3.798628351700146510e-02,1.292691441197648394e-01
6.959999999999999520e-01,3.723455908556640159e-02,7.728228329857163292e-02,3.754620897309723232e-02,1.277262658227116821e-01
6.969999999999999529e-01,3.712111626073320847e-02,7.674246414852858855e-02,3.711754338818820664e-02,1.261957051208089098e-01
6.979999999999999538e-01,3.700430698723838896e-02,7.623676170631556170e-02,3.669995928139635488e-02,1.246783193059106259e-01
6.989999999999999547e-01,3.688395463129624102e-02,7.576742715967133002e-02,3.629309975030622221e-02,1.231749838344346759e-01
6.999999999999999556e-01,3.675986684504226748e-02,7.533671029686843379e-02,3.589657807434099707e-02,1.216866574457155098e-01
7.009999999999999565e-01,3.663188342521399993e-02,7.494686240248636666e-02,3.550997599329354382e-02,1.202144425881502554e-01
7.019999999999999574e-01,3.649994012398594112e-02,7.460012719945596782e-02,3.513285214245445015e-02,1.187596199502463923e-01
7.029999999999999583e-01,3.636408911484911854e-02,7.429872674607150562e-02,3.476475390515892938e-02,1.173236392568050984e-01
7.039999999999999591e-01,3.622446704889674407e-02,7.404484466077324023e-02,3.440522170071101671e-02,1.159080683008115176e-01
7.049999999999999600e-01,3.608124852254151332e-02,7.384060855326718409e-02,3.405378585693143861e-02,1.145145150441234383e-01
7.059999999999999609e-01,3.593460510752487930e-02,7.368807800502770455e-02,3.370997196813473040e-02,1.131445474026782083e-01
7.069999999999999618e-01,3.578467971572171086e-02,7.358923986710046161e-02,3.337331810225883932e-02,1.117996478274379535e-01
7.079999999999999627e-01,3.563159683367417979e-02,7.354600368949801292e-02,3.304338332382074361e-02,1.104812223713837194e-01
7.089999999999999636e-01,3.547550431917145808e-02,7.356019124896671924e-02,3.271974653977830633e-02,1.091906351072037540e-01
7.099999999999999645e-01,3.531660900224502242e-02,7.363352595211325458e-02,3.240201525182801606e-02,1.079292265230523545e-01
7.109999999999999654e-01,3.515518526219543055e-02,7.376762953294377367e-02,3.208984591605969910e-02,1.066983049670243711e-01
7.119999999999999662e-01,3.499156530396260734e-02,7.396401964532589579e-02,3.178296107524816727e-02,1.054991181015208224e-01
7.129999999999999671e-01,3.482611846566812525e-02,7.422410027649155306e-02,3.148115355538411847e-02,1.043328138556971485e-01
7.139999999999999680e-01,3.465922601046168144e-02,7.454914896212638808e-02,3.118427946897669653e-02,1.032004044919622027e-01
7.149999999999999689e-01,3.449127059360507230e-02,7.494030778248744751e-02,3.089224164028663358e-02,1.021027402124587147e-01
7.159999999999999698e-01,3.432264990356608675e-02,7.539858773373421530e-02,3.060496679295648947e-02,1.010404909944087465e-01
7.169999999999999707e-01,3.415379118986666684e-02,7.592489444994986181e-02,3.032238945885705472e-02,1.000141414812948520e-01
7.179999999999999716e-01,3.398513752247025316e-02,7.652005624095328806e-02,3.004444912151825117e-02,9.902401607315100551e-02
7.189999999999999725e-01,3.381711395451741931e-02,7.718482504869256244e-02,2.977109321497640668e-02,9.807035886871158514e-02
7.199999999999999734e-01,3.365010652978395189e-02,7.791985579092597369e-02,2.950227622653962822e-02,9.715343288457579940e-02
7.209999999999999742e-01,3.348446269138877218e-02,7.872568932487163107e-02,2.923795414692034050e-02,9.627354227885943916e-02
7.219999999999999751e-01,3.332049314324018324e-02,7.960274579914013160e-02,2.897808144486200416e-02,9.543098491402730865e-02
7.229999999999999760e-01,3.315846483253215293e-02,8.055132003419779307e-02,2.872261290396137950e-02,9.462602881373630148e-02
7.239999999999999769e-01,3.299859711049284855e-02,8.157157204624064517e-02,2.847150330479235672e-02,9.385891440328587854e-02
7.249999999999999778e-01,3.284106908479334647e-02,8.266351500647954598e-02,2.822470117405982346e-02,9.312983712499069144e-02
7.259999999999999787e-01,3.268602900437755227e-02,8.382700763788161757e-02,2.798214704210863837e-02,9.243891394590562915e-02
7.269999999999999796e-01,3.253360225786229576e-02,8.506175126770318395e-02,2.774378136183364499e-02,9.178615384600087579e-02
7.279999999999999805e-01,3.238390164076650202e-02,8.636728718456232468e-02,2.750955325568538515e-02,9.117144441564797863e-02
7.289999999999999813e-01,3.223703410041218326e-02,8.774299355129742961e-02,2.727942980830233219e-02,9.059455573243677118e-02
7.299999999999999822e-01,3.209310419872197367e-02,8.918808305987326046e-02,2.705340562313948011e-02,9.005515378134394677e-02
7.309999999999999831e-01,3.195221675284833085e-02,9.070160007649508138e-02,2.683150140617568055e-02,8.955281948812592041e-02
7.319999999999999840e-01,3.181447028429403717e-02,9.228241622144969791e-02,2.661375134718394625e-02,8.908706833179504125e-02
7.329999999999999849e-01,3.167994557034306546e-02,9.392922837866177210e-02,2.640018883706110597e-02,8.865736418118540241e-02
7.339999999999999858e-01,3.154870072345592608e-02,9.564056159356264242e-02,2.619083492949122668e-02,8.826312819061792048e-02
7.349999999999999867e-01,3.142076697741955082e-02,9.741477028787322301e-02,2.598569183612742944e-02,8.790373988132312022e-02
7.359999999999999876e-01,3.129614109330926958e-02,9.925003469456249172e-02,2.578474475652342904e-02,8.757852455404739611e-02
7.369999999999999885e-01,3.117478489910005882e-02,1.011443579413257438e-01,2.558797556750058710e-02,8.728673416632137805e-02
7.379999999999999893e-01,3.105663075527386255e-02,1.030955626118958413e-01,2.539537991481025450e-02,8.702753618118573564e-02
7.389999999999999902e-01,3.094157890991975496e-02,1.051012824235498522e-01,2.520696660421182025e-02,8.680000903768632370e-02
7.399999999999999911e-01,3.082948917793509533e-02,1.071589529067341895e-01,2.502273770451511267e-02,8.660312912143806885e-02
7.409999999999999920e-01,3.072018600403233698e-02,1.092658064032424742e-01,2.484267072846045241e-02,8.643575210301929213e-02
7.419999999999999929e-01,3.061348804281714686e-02,1.114188706164846027e-01,2.466671497351347400e-02,8.629660108394687779e-02
7.429999999999999938e-01,3.050924894479629945e-02,1.136149663758550254e-01,2.449479950413220239e-02,8.618425933629540736e-02
7.439999999999999947e-01,3.040738309744032628e-02,1.158507023915017059e-01,2.432684349185992509e-02,8.609717020659804487e-02
7.449999999999999956e-01,3.030785942230571073e-02,1.181224682597384473e-01,2.416275542353312628e-02,8.603365009138110031e-02
7.459999999999999964e-01,3.021066575032085866e-02,1.204264287876707779e-01,2.400242248269985126e-02,8.599190179268026424e-02
7.469999999999999973e-01,3.011577176439886663e-02,1.227585207851491361e-01,2.384570618769013203e-02,8.597002315010078555e-02
7.479999999999999982e-01,3.002312424266910182e-02,1.251144502136138092e-01,2.369244871455077062e-02,8.596603442308381471e-02
7.489999999999999991e-01,2.993268461724735846e-02,1.274896920639089493e-01,2.354248805633708461e-02,8.597793659207325634e-02
7.500000000000000000e-01,2.984448970887590077e-02,1.298794996113187827e-01,2.339569012350051214e-02,8.600377373265466474e-02
7.510000000000000009e-01,2.975869736606500879e-02,1.322789229933374333e-01,2.325199329832702833e-02,8.604167383208172204e-02
7.520000000000000018e-01,2.967558738615957981e-02,1.346828303681296135e-01,2.311143158671872741e-02,8.608987131138705340e-02
7.530000000000000027e-01,2.959551898929908831e-02,1.370859215122046115e-01,2.297411504018216297e-02,8.614670061253948408e-02
7.540000000000000036e-01,2.951887315343827700e-02,1.394827254923219073e-01,2.284019129834726977e-02,8.621054207314508833e-02
7.550000000000000044e-01,2.944601071905202788e-02,1.418675958867869902e-01,2.270981715724828751e-02,8.627978053229579114e-02
7.560000000000000053e-01,2.937725255957302981e-02,1.442347160412860430e-01,2.258314260624760123e-02,8.635285068725553903e-02
7.570000000000000062e-01,2.931287076057578073e-02,1.465780835614515221e-01,2.246030038054055641e-02,8.642829184120447150e-02
7.580000000000000071e-01,2.925308568341654716e-02,1.488914605387610668e-01,2.234139700720725111e-02,8.650470085003497678e-02
7.590000000000000080e-01,2.919807101996018880e-02,1.511683399865901278e-01,2.222650615266883942e-02,8.658063554604807088e-02
7.600000000000000089e-01,2.914796605523573350e-02,1.534019650902402332e-01,2.211566715385797355e-02,8.665456488928295620e-02
7.610000000000000098e-01,2.910288426602967646e-02,1.555853936032430274e-01,2.200888825854090125e-02,8.672485616691810728e-02
7.620000000000000107e-01,2.906290903282314833e-02,1.577116172152637497e-01,2.190615424804364872e-02,8.678975912822171901e-02
7.630000000000000115e-01,2.902808665025001858e-02,1.597737715336432773e-01,2.180743416743028892e-02,8.684739933819864144e-02
7.640000000000000124e-01,2.899843243469574922e-02,1.617654094966533007e-01,2.171268193186150566e-02,8.689580865737131510e-02
7.650000000000000133e-01,2.897394982987040388e-02,1.636807021351907032e-01,2.162183837305303377e-02,8.693298763473901458e-02
7.660000000000000142e-01,2.895464685585622672e-02,1.655144331168326155e-01,2.153484345205056161e-02,8.695697088033803313e-02
7.670000000000000151e-01,2.894053396546308540e-02,1.672617910346776149e-01,2.145164241971035321e-02,8.696587070493790039e-02
7.680000000000000160e-01,2.893160660231280240e-02,1.689181109786685453e-01,2.137217346040918772e-02,8.695789834388653605e-02
7.690000000000000169e-01,2.892782923319851471e-02,1.704787148917565887e-01,2.129635059287845675e-02,8.693138431019875600e-02
7.700000000000000178e-01,2.892912945738624828e-02,1.719389027914211276e-01,2.122405644681977024e-02,8.688479175786692488e-02
7.710000000000000187e-01,2.893540212889998339e-02,1.732942827588208057e-01,2.115514717585867399e-02,8.681670667110431838e-02
7.720000000000000195e-01,2.894652261052745729e-02,1.745416796308400798e-01,2.108946794756430890e-02,8.672585081533036588e-02
7.730000000000000204e-01,2.896236303194652667e-02,1.756801714840029727e-01,2.102686863649510726e-02,8.661112293328947220e-02
7.740000000000000213e-01,2.898279699236632964e-02,1.767112545792905443e-01,2.096721169025718076e-02,8.647159049774602591e-02
7.750000000000000222e-01,2.900768944532160221e-02,1.776379883026180106e-01,2.091038025032145725e-02,8.630644791595137866e-02
7.760000000000000231e-01,2.903689210694329961e-02,1.784640181882332644e-01,2.085628464361498347e-02,8.611505184961673609e-02
7.770000000000000240e-01,2.907025872958606330e-02,1.791930542635034318e-01,2.080485869243360597e-02,8.589708149989561115e-02
7.780000000000000249e-01,2.910766358044058338e-02,1.798286895035165478e-01,2.075606074345129337e-02,8.565271915232074151e-02
7.790000000000000258e-01,2.914900203335415649e-02,1.803743909385995270e-01,2.070989459630228832e-02,8.538264162670355928e-02
7.800000000000000266e-01,2.919417758061219545e-02,1.808335788778523412e-01,2.066643391005316618e-02,8.508779416818973429e-02
7.810000000000000275e-01,2.924308668221494573e-02,1.812097192807310686e-01,2.062582023507606235e-02,8.476918869348770702e-02
7.820000000000000284e-01,2.929560472808362057e-02,1.815064010671149086e-01,2.058823309323417478e-02,8.442785712792617858e-02
7.830000000000000293e-01,2.935158190129573755e-02,1.817273828142627057e-01,2.055385989693615453e-02,8.406484548205282736e-02
7.840000000000000302e-01,2.941085533926096965e-02,1.818766160199195570e-01,2.052287974404841397e-02,8.368118808266304665e-02
7.850000000000000311e-01,2.947326063743355498e-02,1.819582622865899835e-01,2.049545386219507256e-02,8.327791147777424685e-02
7.860000000000000320e-01,2.953862391725574008e-02,1.819766821240538512e-01,2.047171951722361397e-02,8.285607916574425080e-02
7.870000000000000329e-01,2.960674409353237016e-02,1.819363848562161601e-01,2.045178738348563119e-02,8.241684725642482723e-02
7.880000000000000338e-01,2.967738246487330173e-02,1.818419597523296960e-01,2.043574124877640952e-02,8.196149962068895178e-02
7.890000000000000346e-01,2.975026234841104608e-02,1.816980021654015232e-01,2.042364502436327944e-02,8.149145242797026234e-02
7.900000000000000355e-01,2.982507323405913721e-02,1.815090541893102094e-01,2.041555661792561482e-02,8.100823842680827946e-02
7.910000000000000364e-01,2.990147235495714539e-02,1.812795700317349767e-01,2.041153693591083937e-02,8.051347401117182889e-02
7.920000000000000373e-01,2.997908769457139147e-02,1.810138849233992875e-01,2.041164928622167876e-02,8.000880716946011384e-02
7.930000000000000382e-01,3.005754023565366043e-02,1.807161720670885097e-01,2.041595381560998984e-02,7.949586259991958670e-02
7.940000000000000391e-01,3.013648961232052656e-02,1.803904049792368069e-01,2.042450417302981228e-02,7.897621247742600548e-02
7.950000000000000400e-01,3.021567060077182121e-02,1.800403400851197100e-01,2.043735129845874327e-02,7.845137103532326406e-02
7.960000000000000409e-01,3.029488369642817022e-02,1.796695044113442719e-01,2.045454578558171185e-02,7.792278960613063798e-02
7.970000000000000417e-01,3.037395050858733916e-02,1.792811717287545459e-01,2.047613192070389665e-02,7.739185190831129879e-02
7.980000000000000426e-01,3.045268216282189314e-02,1.788783330894882784e-01,2.050214244348736586e-02,7.685987720153135416e-02
7.990000000000000435e-01,3.053088519304808512e-02,1.784636755517922946e-01,2.053259891817030974e-02,7.632812359471963237e-02
8.000000000000000444e-01,3.060837443896755397e-02,1.780395722430277439e-01,2.056751711102813157e-02,7.579778688405647280e-02
8.010000000000000453e-01,3.068496356304631009e-02,1.776080771865581054e-01,2.060691972559719476e-02,7.527000057224207674e-02
8.020000000000000462e-01,3.076045290534996576e-02,1.771709189662578898e-01,2.065084753971855452e-02,7.474583824409486432e-02
8.030000000000000471e-01,3.083463022422812394e-02,1.767294938000563698e-01,2.069935711521353819e-02,7.422631247234216800e-02
8.040000000000000480e-01,3.090727133917165609e-02,1.762848618652445298e-01,2.075251260770364509e-02,7.371236455762153472e-02
8.050000000000000488e-01,3.097814955336705353e-02,1.758377622017426867e-01,2.081038927352235612e-02,7.320485079454976118e-02
8.060000000000000497e-01,3.104706557727068827e-02,1.753886840832502847e-01,2.087308684866526209e-02,7.270454689756031263e-02
8.070000000000000506e-01,3.111386650039849044e-02,1.749380057089489349e-01,2.094073116202688212e-02,7.221218064919246449e-02
8.080000000000000515e-01,3.117843497623547927e-02,1.744861282349894349e-01,2.101346392458113346e-02,7.172846539160881996e-02
8.090000000000000524e-01,3.124068325922214201e-02,1.740335226821840275e-01,2.109144271435451495e-02,7.125410018879026197e-02
8.100000000000000533e-01,3.130056993383680680e-02,1.735806968082505286e-01,2.117485083039426230e-02,7.078974165234593052e-02
8.110000000000000542e-01,3.135810821798663134e-02,1.731281425839883703e-01,2.126389754055019871e-02,7.033597582205100562e-02
8.120000000000000551e-01,3.141334674379140518e-02,1.726762868997262224e-01,2.135880553905075349e-02,6.989330086364449468e-02
8.129999999999999449e-01,3.146634933241414939e-02,1.722254284111251754e-01,2.145980208083533847e-02,6.946211792474143998e-02
8.139999999999999458e-01,3.151721380031683589e-02,1.717756948564504171e-01,2.156712366956423793e-02,6.904272827585986039e-02
8.149999999999999467e-01,3.156611906551360508e-02,1.713270957983392684e-01,2.168102606668828938e-02,6.863533173843713864e-02
8.159999999999999476e-01,3.161333985503520655e-02,1.708796271853016968e-01,2.180179229905507624e-02,6.824003753427479446e-02
8.169999999999999485e-01,3.165921112245061175e-02,1.704333204676941604e-01,2.192973564391956232e-02,6.785691930752343892e-02
8.179999999999999494e-01,3.170408547768036045e-02,1.699883076864561193e-01,2.206518717081322120e-02,6.748611411573322838e-02
8.189999999999999503e-01,3.174831722824505292e-02,1.695450340981841664e-01,2.220846941957575066e-02,6.712791919802452156e-02
8.199999999999999512e-01,3.179226599398396469e-02,1.691045150203679681e-01,2.235987612053157852e-02,6.678284168526259224e-02
8.209999999999999520e-01,3.183629562451256029e-02,1.686684327253273885e-01,2.251966579656540512e-02,6.645157844960045135e-02
8.219999999999999529e-01,3.188076735514121934e-02,1.682390312082959472e-01,2.268806391066946135e-02,6.613493327776708008e-02
8.229999999999999538e-01,3.192604444655083862e-02,1.678188833599765506e-01,2.286527160915130183e-02,6.583371728051332084e-02
8.239999999999999547e-01,3.197250018344716116e-02,1.674106382100931933e-01,2.305147666267076678e-02,6.554868573674847709e-02
8.249999999999999556e-01,3.202050975842400671e-02,1.670168487067225649e-01,2.324686118480476238e-02,6.528052600195075050e-02
8.259999999999999565e-01,3.207043008412285151e-02,1.666398887211788804e-01,2.345160897104953818e-02,6.502986389557822988e-02
8.269999999999999574e-01,3.212258321252444565e-02,1.662819224468935209e-01,2.366591284009618434e-02,6.479725451393050784e-02
8.279999999999999583e-01,3.217725567558208516e-02,1.659449073901661520e-01,2.388997456011477880e-02,6.458316611419141762e-02
8.289999999999999591e-01,3.223471283882010929e-02,1.656306070366610206e-01,2.412399578287769547e-02,6.438798323984559757e-02
8.299999999999999600e-01,3.229520895631284721e-02,1.653405995610888468e-01,2.436816356404390010e-02,6.421202686051216690e-02
8.309999999999999609e-01,3.235897915047701578e-02,1.650762927865981888e-01,2.462263440445628879e-02,6.405556861406778990e-02
8.319999999999999618e-01,3.242622567198773925e-02,1.648389572470258801e-01,2.488752399363734075e-02,6.391883146812658845e-02
8.329999999999999627e-01,3.249712066681267192e-02,1.646297672159938996e-01,2.516290506338246871e-02,6.380199125317501108e-02
8.339999999999999636e-01,3.257182955608518143e-02,1.644498255529334985e-01,2.544881165065080927e-02,6.370518614567077798e-02
8.349999999999999645e-01,3.265053805072581222e-02,1.643001599087049458e-01,2.574525186038931907e-02,6.362852266476561047e-02
8.359999999999999654e-01,3.273346902911695305e-02,1.641816954342213974e-01,2.605222225001425224e-02,6.357207452467904252e-02
8.369999999999999662e-01,3.282088545359928417e-02,1.640952149850415653e-01,2.636970967510814112e-02,6.353588348081730397e-02
8.379999999999999671e-01,3.291307427014412978e-02,1.640413253642048486e-01,2.669768270116948741e-02,6.351996623619428350e-02
8.389999999999999680e-01,3.301032150069019983e-02,1.640204697296439584e-01,2.703608571962232490e-02,6.352432332078754296e-02
8.399999999999999689e-01,3.311289830774313825e-02,1.640329963248991774e-01,2.738484205421249512e-02,6.354894319397831615e-02
8.409999999999999698e-01,3.322105442583941221e-02,1.640792244969730695e-01,2.774386008360776174e-02,6.359379813350159172e-02
8.419999999999999707e-01,3.333500997540290306e-02,1.641594527110126212e-01,2.811303510200216862e-02,6.365883106706846095e-02
8.429999999999999716e-01,3.345495060134266729e-02,1.642739066566457351e-01,2.849225204409965018e-02,6.374393290853169747e-02
8.439999999999999725e-01,3.358102557906882113e-02,1.644226725803601130e-01,2.888138628431224236e-02,6.384892717330789558e-02
8.449999999999999734e-01,3.371334605199571149e-02,1.646057126508495838e-01,2.928029279596154610e-02,6.397358458275137494e-02
8.459999999999999742e-01,3.385198420021071075e-02,1.648229861451170897e-01,2.968879150665571995e-02,6.411764908334563473e-02
8.469999999999999751e-01,3.399696989837941441e-02,1.650745197833541067e-01,3.010665749770728705e-02,6.428083401424947163e-02
8.479999999999999760e-01,3.414828747827047123e-02,1.653603171894048318e-01,3.053362031783219202e-02,6.446279010299735268e-02
8.489999999999999769e-01,3.430587770530083014e-02,1.656802113772676277e-01,3.096938456478010027e-02,6.466308403954304507e-02
8.499999999999999778e-01,3.446964061852759303e-02,1.660337746269462955e-01,3.141366865326859076e-02,6.488120790786645886e-02
8.509999999999999787e-01,3.463943538230639801e-02,1.664202828246869048e-01,3.186623210329225797e-02,6.511660807929975370e-02
8.519999999999999796e-01,3.481507976055994019e-02,1.668387090315397447e-01,3.232687207619070607e-02,6.536870992100253519e-02
8.529999999999999805e-01,3.499635433394609335e-02,1.672877501641491793e-01,3.279539929817888028e-02,6.563691841125986193e-02
8.539999999999999813e-01,3.518301014497816903e-02,1.677658977679670760e-01,3.327161179283478348e-02,6.592059236514960507e-02
8.549999999999999822e-01,3.537477294366077329e-02,1.682715430551088853e-01,3.375528251735950003e-02,6.621900910948058661e-02
8.559999999999999831e-01,3.557134271865081132e-02,1.688030793996383172e-01,3.424616749113906788e-02,6.653134294560397732e-02
8.569999999999999840e-01,3.577239535334877929e-02,1.693589695029386888e-01,3.474402165485038912e-02,6.685666677189344709e-02
8.579999999999999849e-01,3.597759249866662457e-02,1.699377674014604656e-01,3.524860246265363456e-02,6.719396099275458389e-02
8.589999999999999858e-01,3.618658578379563978e-02,1.705380823374149091e-01,3.575965397665412798e-02,6.754211617664918066e-02
8.599999999999999867e-01,3.639900100169327773e-02,1.711584925264597601e-01,3.627688322883831917e-02,6.789994432121759793e-02
8.609999999999999876e-01,3.661441768121201368e-02,1.717974955391429470e-01,3.679994543622871345e-02,6.826621234812987882e-02
8.619999999999999885e-01,3.683236953750805565e-02,1.724535237169100843e-01,3.732844132275461163e-02,6.863967357407778358e-02
8.629999999999999893e-01,3.705237777621588763e-02,1.731249074797808485e-01,3.786191842512755257e-02,6.901906024728951539e-02
8.639999999999999902e-01,3.727398972185647086e-02,1.738097704969392976e-01,3.839986949584312664e-02,6.940304338225833369e-02
8.649999999999999911e-01,3.749677659116239931e-02,1.745060238664759567e-01,3.894173204175726405e-02,6.979020020913609401e-02
8.659999999999999920e-01,3.772030329815674599e-02,1.752115645386855269e-01,3.948690507450317022e-02,7.017901697572723196e-02
8.669999999999999929e-01,3.794411990312170774e-02,1.759245467979006217e-01,4.003478627663471096e-02,7.056793278303655215e-02
8.679999999999999938e-01,3.816778369529411769e-02,1.766434549217405781e-01,4.058480033366920758e-02,7.095540229515026609e-02
8.689999999999999947e-01,3.839087671131479612e-02,1.773669280633973777e-01,4.113639016636923273e-02,7.133993464088013436e-02
8.699999999999999956e-01,3.861298708892432069e-02,1.780936014277081647e-01,4.168898124819890583e-02,7.172007762945209475e-02
8.709999999999999964e-01,3.883367785145817180e-02,1.788221306423239398e-01,4.224195289842801182e-02,7.209435760281728001e-02
8.719999999999999973e-01,3.905248652591405273e-02,1.795512996831994668e-01,4.279463596244896528e-02,7.246123286356440096e-02
8.729999999999999982e-01,3.926894023840452747e-02,1.802800805285564023e-01,4.334632928696195014e-02,7.281910375314641637e-02
8.739999999999999991e-01,3.948254686093820298e-02,1.810076010047722006e-01,4.389631347640407522e-02,7.316636032367619669e-02
8.750000000000000000e-01,3.969277577018087005e-02,1.817330349930041944e-01,4.444384733007990945e-02,7.350143202249999341e-02
8.760000000000000009e-01,3.989907361385706952e-02,1.824554933146639024e-01,4.498816420409917222e-02,7.382282293220240876e-02
8.770000000000000018e-01,4.010091971748967754e-02,1.831740243879202978e-01,4.552849482595217045e-02,7.412913262007553294e-02
8.780000000000000027e-01,4.029787739716741285e-02,1.838877258633253575e-01,4.606410233399547971e-02,7.441906540403928072e-02
8.790000000000000036e-01,4.048961181895677913e-02,1.845958349709820590e-01,4.659429759752956729e-02,7.469140612924607403e-02
8.800000000000000044e-01,4.067587670155162205e-02,1.852976991758072955e-01,4.711843027680120977e-02,7.494495433205654311e-02
8.810000000000000053e-01,4.085647015712087077e-02,1.859926589497988836e-01,4.763587242460873977e-02,7.517848220102121837e-02
8.820000000000000062e-01,4.103118023452228397e-02,1.866799584473133877e-01,4.814601588509818952e-02,7.539078095014543901e-02
8.830000000000000071e-01,4.119976074657673293e-02,1.873588152007234497e-01,4.864828027904915392e-02,7.558077328690598895e-02
8.840000000000000080e-01,4.136193379207847576e-02,1.880286564244988412e-01,4.914210176772199762e-02,7.574763438936164828e-02
8.850000000000000089e-01,4.151739636616529061e-02,1.886893178068796417e-01,4.962691793832943454e-02,7.589087610641588599e-02
8.860000000000000098e-01,4.166584025737408298e-02,1.893410125929037291e-01,5.010219581975901976e-02,7.601034999644934453e-02
8.870000000000000107e-01,4.180698512695289748e-02,1.899841628386896575e-01,5.056747976271393219e-02,7.610615154311532737e-02
8.880000000000000115e-01,4.194059857952212034e-02,1.906192952854478539e-01,5.102240203528531776e-02,7.617847656922410726e-02
8.890000000000000124e-01,4.206648965933085238e-02,1.912470059047936266e-01,5.146665821505908012e-02,7.622752841860216955e-02
8.900000000000000133e-01,4.218448720860429324e-02,1.918679334125050762e-01,5.189998225360881873e-02,7.625353322245097265e-02
8.910000000000000142e-01,4.229442878863066968e-02,1.924827462492102736e-01,5.232214438190078282e-02,7.625683593203397281e-02
8.920000000000000151e-01,4.239618118519063172e-02,1.930920842926905912e-01,5.273298123375798341e-02,7.623801542216909755e-02
8.930000000000000160e-01,4.248968889144899563e-02,1.936964509805608747e-01,5.313244352664795583e-02,7.619795707495490011e-02
8.940000000000000169e-01,4.257502700872630580e-02,1.942961553803181363e-01,5.352063328063556835e-02,7.613783621665032308e-02
8.950000000000000178e-01,4.265243432487254155e-02,1.948912955490778587e-01,5.389780994535239844e-02,7.605902053256728690e-02
8.960000000000000187e-01,4.272230760978058123e-02,1.954817337359202600e-01,5.426434978627468764e-02,7.596294922951779549e-02
8.970000000000000195e-01,4.278514647529536169e-02,1.960671006509449865e-01,5.462066580351095102e-02,7.585104002936568501e-02
8.980000000000000204e-01,4.284147234540964383e-02,1.966468408799952883e-01,5.496713151338411540e-02,7.572463384761111971e-02
8.990000000000000213e-01,4.289177359858988708e-02,1.972202407227055532e-01,5.530404946055362397e-02,7.558496789342664113e-02
9.000000000000000222e-01,4.293649280442025234e-02,1.977863806025112747e-01,5.563166534028845395e-02,7.543318087519484960e-02
9.010000000000000231e-01,4.297602967308439964e-02,1.983440383395349282e-01,5.595019775296832670e-02,7.527034882586428055e-02
9.020000000000000240e-01,4.301074646472488605e-02,1.988916256509540570e-01,5.625985584279639268e-02,7.509752715116807531e-02
9.030000000000000249e-01,4.304097397340876652e-02,1.994271874448002302e-01,5.656083875573114650e-02,7.491577409617961036e-02
9.040000000000000258e-01,4.306700901744950349e-02,1.999484859825862992e-01,5.685332822553122029e-02,7.472614028721918933e-02
9.050000000000000266e-01,4.308910439659240088e-02,2.004532126147392512e-01,5.713748348433278501e-02,7.452962498530446567e-02
9.060000000000000275e-01,4.310746304281779656e-02,2.009392513209724840e-01,5.741343720408091655e-02,7.432713401879156856e-02
9.070000000000000284e-01,4.312224453047342615e-02,2.014048303433854936e-01,5.768129676133121331e-02,7.411947461313238283e-02
9.080000000000000293e-01,4.313358143405700978e-02,2.018485001313680138e-01,5.794116044258087322e-02,7.390737884691485349e-02
9.090000000000000302e-01,4.314159513367439580e-02,2.022689818145355367e-01,5.819314578262434201e-02,7.369152182854031563e-02
9.100000000000000311e-01,4.314640509735753748e-02,2.026650104223689797e-01,5.843741687689170405e-02,7.347251585886210856e-02
9.110000000000000320e-01,4.314813344305976073e-02,2.030353793715100608e-01,5.867419621574024996e-02,7.325090866501794695e-02
9.120000000000000329e-01,4.314690911693175313e-02,2.033792667345832306e-01,5.890375218574935012e-02,7.302722164241355618e-02
9.130000000000000338e-01,4.314286605026983884e-02,2.036966224498758804e-01,5.912636322879923773e-02,7.280199771103884610e-02
9.140000000000000346e-01,4.313612663813628373e-02,2.039882421995072026e-01,5.934227225340990564e-02,7.257580602388659374e-02
9.150000000000000355e-01,4.312678550025786373e-02,2.042554060179856135e-01,5.955165726482408023e-02,7.234920590556720432e-02
9.160000000000000364e-01,4.311490546585625833e-02,2.044994082769290566e-01,5.975462610421456572e-02,7.212269915121317931e-02
9.170000000000000373e-01,4.310051369485757428e-02,2.047213214567547290e-01,5.995121291526144675e-02,7.189669173267154711e-02
9.180000000000000382e-01,4.308360045763183488e-02,2.049219677249846938e-01,6.014136579335621624e-02,7.167147931126512106e-02
9.190000000000000391e-01,4.306413446724683541e-02,2.051019381072242964e-01,6.032494228982300533e-02,7.144725224171025180e-02
9.200000000000000400e-01,4.304208742129545656e-02,2.052615934578539691e-01,6.050172748332609957e-02,7.122411366163233781e-02
9.210000000000000409e-01,4.301746156209791672e-02,2.054010262440896240e-01,6.067146710173947771e-02,7.100211317765665886e-02
9.220000000000000417e-01,4.299032797365984204e-02,2.055200143674083546e-01,6.083388924727743674e-02,7.078127121378005593e-02
9.230000000000000426e-01,4.296085044013142618e-02,2.056180222554764847e-01,6.098869529775316489e-02,7.056156478818183253e-02
9.240000000000000435e-01,4.292925640365022333e-02,2.056942146092155532e-01,6.113553540169085893e-02,7.034290092519647486e-02
9.250000000000000444e-01,4.289578277248148191e-02,2.057474382379204103e-01,6.127400481955997541e-02,7.012511816739365467e-02
9.260000000000000453e-01,4.286066208843456599e-02,2.057762328420193465e-01,6.140367346787190678e-02,6.990801007700594982e-02
9.270000000000000462e-01,4.282415266891552441e-02,2.057789269640452889e-01,6.152412389643344137e-02,6.969134286498897268e-02
9.280000000000000471e-01,4.278654728289343900e-02,2.057537756575339716e-01,6.163496249775280572e-02,6.947484758142541406e-02
9.290000000000000480e-01,4.274813365542869115e-02,2.056990694537161601e-01,6.173579649968326255e-02,6.925818741068008599e-02
9.300000000000000488e-01,4.270915843053918470e-02,2.056131900141702218e-01,6.182620771750269029e-02,6.904092984223812735e-02
9.310000000000000497e-01,4.266982183262103129e-02,2.054946231758504049e-01,6.190574913385443745e-02,6.882255135571810345e-02
9.320000000000000506e-01,4.263027507261954452e-02,2.053419427884708992e-01,6.197395469321070882e-02,6.860247073328044898e-02
9.330000000000000515e-01,4.259060965363384993e-02,2.051537594346701521e-01,6.203034202029467786e-02,6.838008527667524539e-02
9.340000000000000524e-01,4.255085237683121913e-02,2.049286210298055244e-01,6.207440469062299598e-02,6.815479228224979869e-02
9.350000000000000533e-01,4.251096914678995781e-02,2.046648952961761248e-01,6.210560268862325844e-02,6.792601018019187031e-02
9.360000000000000542e-01,4.247086543643796563e-02,2.043606958806845619e-01,6.212334957289403214e-02,6.769321546962572822e-02
9.370000000000000551e-01,4.243037891100361059e-02,2.040139244352333625e-01,6.212699431449671822e-02,6.745597669046768385e-02
9.379999999999999449e-01,4.238927835106169606e-02,2.036224677043892983e-01,6.211582081323057530e-02,6.721395565813807760e-02
9.389999999999999458e-01,4.234727193815124302e-02,2.031843981912846153e-01,6.208908032788108128e-02,6.696687257523795123e-02
9.399999999999999467e-01,4.230401266891212209e-02,2.026979583699767551e-01,6.204603795231815322e-02,6.671445636419873204e-02
9.409999999999999476e-01,4.225910319824661282e-02,2.021614233932869098e-01,6.198601762167576384e-02,6.645640617184851717e-02
9.419999999999999485e-01,4.221210730431219915e-02,2.015731979178949917e-01,6.190844462179337371e-02,6.619240167334229652e-02
9.429999999999999494e-01,4.216256732119483958e-02,2.009323247720529448e-01,6.181288486699263590e-02,6.592218887773845792e-02
9.439999999999999503e-01,4.211003017491810746e-02,2.002391947255373617e-01,6.169907335819900529e-02,6.564570194000851622e-02
9.449999999999999512e-01,4.205407141852994524e-02,1.994959605557187765e-01,6.156689644264592282e-02,6.536313682845404371e-02
9.459999999999999520e-01,4.199428985053927504e-02,1.987062509773889762e-01,6.141630902671132985e-02,6.507492523812348495e-02
9.469999999999999529e-01,4.193027675979766472e-02,1.978743892329873910e-01,6.124725357196716263e-02,6.478163140076312332e-02
9.479999999999999538e-01,4.186160636086280057e-02,1.970047612532311032e-01,6.105965488476702840e-02,6.448384161627451761e-02
9.489999999999999547e-01,4.178786765084418348e-02,1.961016359577060220e-01,6.085347745775675221e-02,6.418210809572136299e-02
9.499999999999999556e-01,4.170870965664868341e-02,1.951692244229113193e-01,6.062879918744453617e-02,6.387695397806135433e-02
9.509999999999999565e-01,4.162388573712826056e-02,1.942117265276022686e-01,6.038587003128126351e-02,6.356888661433694743e-02
9.519999999999999574e-01,4.153329531632624083e-02,1.932333209220440384e-01,6.012513112590061465e-02,6.325837819936477868e-02
9.529999999999999583e-01,4.143699911736443975e-02,1.922381415403682237e-01,5.984719612398788774e-02,6.294582970686117551e-02
9.539999999999999591e-01,4.133519306286372041e-02,1.912302766239382668e-01,5.955281707616809361e-02,6.263155353340166265e-02
9.549999999999999600e-01,4.122815120797653637e-02,1.902137972039475988e-01,5.924284571622466522e-02,6.231579083243810047e-02
9.559999999999999609e-01,4.111615773607697061e-02,1.891927861078623319e-01,5.891818926143770063e-02,6.199874869375394254e-02
9.569999999999999618e-01,4.099945836701468505e-02,1.881713407442741903e-01,5.857975949925112863e-02,6.168063403641527165e-02
9.579999999999999627e-01,4.087825336307011198e-02,1.871535485657714604e-01,5.822842163500028395e-02,6.136168276985363296e-02
9.589999999999999636e-01,4.075271712716734690e-02,1.861434510694469358e-01,5.786496014518858338e-02,6.104218696823768275e-02
9.599999999999999645e-01,4.062301114600923996e-02,1.851450056583480719e-01,5.749007270847990292e-02,6.072250640569181596e-02
9.609999999999999654e-01,4.048928499852452040e-02,1.841620428718273583e-01,5.710438482779552072e-02,6.040305378418151655e-02
9.619999999999999662e-01,4.035168518287213235e-02,1.831982141486530047e-01,5.670847177395238470e-02,6.008425888781662727e-02
9.629999999999999671e-01,4.021037453476051376e-02,1.822569384691663241e-01,5.630288223364383199e-02,5.976652654556270650e-02
9.639999999999999680e-01,4.006554619945861678e-02,1.813413754030527569e-01,5.588816278710989627e-02,5.945020446270524173e-02
9.649999999999999689e-01,3.991742852122500546e-02,1.804544421475908489e-01,5.546487754382555674e-02,5.913556566647090035e-02
9.659999999999999698e-01,3.976628204935204330e-02,1.795988528228770476e-01,5.503361207458533355e-02,5.882279877419804154e-02
9.669999999999999707e-01,3.961237935566662427e-02,1.787771325221678420e-01,5.459496080292294828e-02,5.851199928407906786e-02
9.679999999999999716e-01,3.945597656850401841e-02,1.779915944601051792e-01,5.414951373125512224e-02,5.820316015519699099e-02
9.689999999999999725e-01,3.929729780689866087e-02,1.772443116573841626e-01,5.369784841160411826e-02,5.789616459351499406e-02
9.699999999999999734e-01,3.913652831930657799e-02,1.765370931763993179e-01,5.324051733175058643e-02,5.759078414784805922e-02
9.709999999999999742e-01,3.897380410013348562e-02,1.758714728307301800e-01,5.277803881276692255e-02,5.728668242426396273e-02
9.719999999999999751e-01,3.880920503165662117e-02,1.752487734751729531e-01,5.231090926789104534e-02,5.698342344734430576e-02
9.729999999999999760e-01,3.864277053400935052e-02,1.746702552199936032e-01,5.183962773581789890e-02,5.668048150883262665e-02
9.739999999999999769e-01,3.847454280587125908e-02,1.741372037745330947e-01,5.136471308910303679e-02,5.637724482634914186e-02
9.749999999999999778e-01,3.830461154093341841e-02,1.736508591230688792e-01,5.088671390779311854e-02,5.607301209851981577e-02
9.759999999999999787e-01,3.813313177349741262e-02,1.732122804744314348e-01,5.040621013318333926e-02,5.576699979822637848e-02
9.769999999999999796e-01,3.796031414749250626e-02,1.728222607427618296e-01,4.992379329725700476e-02,5.545837882333800456e-02
9.779999999999999805e-01,3.778640115526474275e-02,1.724812952756762663e-01,4.944003626414000818e-02,5.514633836392902194e-02
9.789999999999999813e-01,3.761164131788159032e-02,1.721895839808720297e-01,4.895548175688065745e-02,5.483015141239198226e-02
9.799999999999999822e-01,3.743626872939594119e-02,1.719470544157201131e-01,4.847064826379205577e-02,5.450920843896207152e-02
9.809999999999999831e-01,3.726049448502138928e-02,1.717533903061795597e-01,4.798603342858633741e-02,5.418300907084499379e-02
9.819999999999999840e-01,3.708451100178108972e-02,1.716080686566093805e-01,4.750211033438767050e-02,5.385112686018295874e-02
9.829999999999999849e-01,3.690850031086259642e-02,1.715104111472449677e-01,4.701931815522960439e-02,5.351316379691502256e-02
9.839999999999999858e-01,3.673264530578877057e-02,1.714596202627841903e-01,4.653804783038316406e-02,5.316870440934844122e-02
9.849999999999999867e-01,3.655713932622873391e-02,1.714547687254586450e-01,4.605862521431658418e-02,5.281727868699492845e-02
9.859999999999999876e-01,3.638217332667052079e-02,1.714947757020421348e-01,4.558129704565254403e-02,5.245835593810508485e-02
9.869999999999999885e-01,3.620790490541544310e-02,1.715784164611251772e-01,4.510622744260595063e-02,5.209139083164998629e-02
9.879999999999999893e-01,3.603444214718927452e-02,1.717043678178643840e-01,4.463350534448443790e-02,5.171590550019433685e-02
