Timestamp,rectus femoris,biceps femoris,vastus internus,semitendinosus
2.899999999999999911e+00,9.206869590064549469e-02,7.740053234183841280e-02,3.412713170191844503e-02,3.382395420392124430e-02
2.900999999999999801e+00,9.163069095108043738e-02,7.772383961586006029e-02,3.371282625864076982e-02,3.392962071169018656e-02
2.902000000000000135e+00,9.118000394111527851e-02,7.803646432080336981e-02,3.330971570386614955e-02,3.402931634593182181e-02
2.903000000000000025e+00,9.071681599522973816e-02,7.833838542214678624e-02,3.291807844782813908e-02,3.412217987786574785e-02
2.903999999999999915e+00,9.024147746255843650e-02,7.862961021651362903e-02,3.253816884238577151e-02,3.420731115007349249e-02
2.904999999999999805e+00,8.975451206350347488e-02,7.891015329942127621e-02,3.217021856900631471e-02,3.428376898483024432e-02
2.906000000000000139e+00,8.925662373179088505e-02,7.918000816623906035e-02,3.181442686783386015e-02,3.435056351326757490e-02
2.907000000000000028e+00,8.874870310040394727e-02,7.943910814755351935e-02,3.147094840490981260e-02,3.440667612930465441e-02
2.907999999999999918e+00,8.823181822455797296e-02,7.968728747876718810e-02,3.113988643095846540e-02,3.445112107543593649e-02
2.908999999999999808e+00,8.770717461713781193e-02,7.992425516204333669e-02,3.082129232981201117e-02,3.448301748358412883e-02
2.910000000000000142e+00,8.717606235376559876e-02,8.014958914530331824e-02,3.051516883211699907e-02,3.450162831963633769e-02
2.911000000000000032e+00,8.663981525773133130e-02,8.036274963797809812e-02,3.022148073708420812e-02,3.450634885953565711e-02
2.911999999999999922e+00,8.609976797191620790e-02,8.056310129731515668e-02,2.994017755030036962e-02,3.449665910768757310e-02
2.912999999999999812e+00,8.555720946328575216e-02,8.074993347688330658e-02,2.967122184037704336e-02,3.447207499993798496e-02
2.914000000000000146e+00,8.501336258646441379e-02,8.092247581008923940e-02,2.941461775426874523e-02,3.443213689394053478e-02
2.915000000000000036e+00,8.446940385291834552e-02,8.107991603196011698e-02,2.917043383850346019e-02,3.437644780507382453e-02
2.915999999999999925e+00,8.392651453126294403e-02,8.122142455705785857e-02,2.893880850310644876e-02,3.430473638375013817e-02
2.916999999999999815e+00,8.338592452621651496e-02,8.134617791639110751e-02,2.871993743901475604e-02,3.421690745443434212e-02
2.918000000000000149e+00,8.284889961759762944e-02,8.145337321912358985e-02,2.851405064624612171e-02,3.411305718244875274e-02
2.919000000000000039e+00,8.231668078793051568e-02,8.154223795791501472e-02,2.832138557157238071e-02,3.399345409403309315e-02
2.919999999999999929e+00,8.179042734696628791e-02,8.161204280274628187e-02,2.814216413248763968e-02,3.385850751649353146e-02
2.920999999999999819e+00,8.127118525834814422e-02,8.166211506656624597e-02,2.797657754802642185e-02,3.370874632778147334e-02
2.922000000000000153e+00,8.075987644647777963e-02,8.169184387893366206e-02,2.782478098775741787e-02,3.354480847004888411e-02
2.923000000000000043e+00,8.025730074191896046e-02,8.170067931170736653e-02,2.768689520508641269e-02,3.336742187365859119e-02
2.923999999999999932e+00,7.976414000833458029e-02,8.168813741965223751e-02,2.756300506339632445e-02,3.317736647432116548e-02
2.924999999999999822e+00,7.928096274560522683e-02,8.165381226291311412e-02,2.745315653270428286e-02,3.297542994488392165e-02
2.926000000000000156e+00,7.880822451098963566e-02,8.159738680084423212e-02,2.735736265406439952e-02,3.276238133226992699e-02
2.927000000000000046e+00,7.834625892831266480e-02,8.151863883019491719e-02,2.727561243365830834e-02,3.253897409259402795e-02
2.927999999999999936e+00,7.789527442838387050e-02,8.141744314816491690e-02,2.720787078309936519e-02,3.230596437032156459e-02
2.928999999999999826e+00,7.745537329227179801e-02,8.129377138452682783e-02,2.715407486029595280e-02,3.206412527364177478e-02
2.930000000000000160e+00,7.702658832287433144e-02,8.114768685609521914e-02,2.711413562217524637e-02,3.181425174255844701e-02
2.931000000000000050e+00,7.660893067490930075e-02,8.097933251758544781e-02,2.708794498969877354e-02,3.155715343811048290e-02
2.931999999999999940e+00,7.620244163213361899e-02,8.078891609882279945e-02,2.707538627118633023e-02,3.129363292928956375e-02
2.932999999999999829e+00,7.580722313203606955e-02,8.057669664049563196e-02,2.707634474699034330e-02,3.102446246654301867e-02
2.934000000000000163e+00,7.542343313615954004e-02,8.034297424576529456e-02,2.709071229725650704e-02,3.075037834793420410e-02
2.935000000000000053e+00,7.505126143509914527e-02,8.008808159421842987e-02,2.711837917722572863e-02,3.047208803369312602e-02
2.935999999999999943e+00,7.469090659804031307e-02,7.981236894582305341e-02,2.715922084392412977e-02,3.019027179168622121e-02
2.936999999999999833e+00,7.434255071690284988e-02,7.951617695325866042e-02,2.721309190928286603e-02,2.990558021316976067e-02
2.938000000000000167e+00,7.400631945667124345e-02,7.919980213964386562e-02,2.727982545994100602e-02,2.961863802529698941e-02
2.939000000000000057e+00,7.368224530551367724e-02,7.886346065979944753e-02,2.735923737041379838e-02,2.933005157437930735e-02
2.939999999999999947e+00,7.337025788582214603e-02,7.850725421691942540e-02,2.745113225366983822e-02,2.904041522491183913e-02
2.940999999999999837e+00,7.307020933146499142e-02,7.813114841507637354e-02,2.755529855802180822e-02,2.875031352740937615e-02
2.942000000000000171e+00,7.278192996828294903e-02,7.773497556488898064e-02,2.767149368143556262e-02,2.846031757391196196e-02
2.943000000000000060e+00,7.250529281740368537e-02,7.731846347023570154e-02,2.779943501765152342e-02,2.817098435196936299e-02
2.943999999999999950e+00,7.224025916456836005e-02,7.688127830811757046e-02,2.793880742954062829e-02,2.788286185146482063e-02
2.944999999999999840e+00,7.198686765506782936e-02,7.642306649205049540e-02,2.808928046775903409e-02,2.759648892672197235e-02
2.946000000000000174e+00,7.174516694592307509e-02,7.594349024483965094e-02,2.825052166143725632e-02,2.731238733269794605e-02
2.947000000000000064e+00,7.151516753835367168e-02,7.544225975545552909e-02,2.842219924460950148e-02,2.703105334954127720e-02
2.947999999999999954e+00,7.129686523401354559e-02,7.491916331185054234e-02,2.860397408061736077e-02,2.675295231379145461e-02
2.948999999999999844e+00,7.109029603161282074e-02,7.437409458960038411e-02,2.879548624286604186e-02,2.647851890818817000e-02
2.950000000000000178e+00,7.089555024569116348e-02,7.380707491816201893e-02,2.899634256948299335e-02,2.620816558179190486e-02
2.951000000000000068e+00,7.071272240005796461e-02,7.321826674125077317e-02,2.920610723245549781e-02,2.594228917681527802e-02
2.951999999999999957e+00,7.054185226287164323e-02,7.260797911205436883e-02,2.942429686234495495e-02,2.568126653670398454e-02
2.952999999999999847e+00,7.038292310398949758e-02,7.197666995387534683e-02,2.965038011536415621e-02,2.542544829814421398e-02
2.954000000000000181e+00,7.023590077040213486e-02,7.132494709018417922e-02,2.988378083725922590e-02,2.517515901387287758e-02
2.955000000000000071e+00,7.010075828423702193e-02,7.065356884901995149e-02,3.012388261051303015e-02,2.493069641502543982e-02
2.955999999999999961e+00,6.997748102100677381e-02,6.996344227180736897e-02,3.037003233598842625e-02,2.469232599886064458e-02
2.956999999999999851e+00,6.986606286852942160e-02,6.925561582197149735e-02,3.062155323637768753e-02,2.446027735382313648e-02
2.958000000000000185e+00,6.976647852817431661e-02,6.853126896083951147e-02,3.087777130917174900e-02,2.423474447070734714e-02
2.959000000000000075e+00,6.967864532107730102e-02,6.779170087650709942e-02,3.113802983139299027e-02,2.401588633280138038e-02
2.959999999999999964e+00,6.960241034866333776e-02,6.703831650751804205e-02,3.140167494546485666e-02,2.380382637839737262e-02
2.960999999999999854e+00,6.953755244098402954e-02,6.627260572551425810e-02,3.166803368375473854e-02,2.359865149146562341e-02
2.962000000000000188e+00,6.948377126419394423e-02,6.549611142718009260e-02,3.193640607146977506e-02,2.340041128923742511e-02
2.963000000000000078e+00,6.944067372297441088e-02,6.471039013464582879e-02,3.220606634500484261e-02,2.320911923278974956e-02
2.963999999999999968e+00,6.940777262745267961e-02,6.391697534456408647e-02,3.247627308735102220e-02,2.302475936670819040e-02
2.964999999999999858e+00,6.938449249196008972e-02,6.311734777029054388e-02,3.274629370876121215e-02,2.284730058733296099e-02
2.966000000000000192e+00,6.937018005163564371e-02,6.231291006574771196e-02,3.301542569061911153e-02,2.267670765783256701e-02
2.967000000000000082e+00,6.936411335629910635e-02,6.150496737959118554e-02,3.328299688143643298e-02,2.251293720907801207e-02
2.967999999999999972e+00,6.936549274342659888e-02,6.069472141367541346e-02,3.354834527856268706e-02,2.235592658284164813e-02
2.968999999999999861e+00,6.937342430178890240e-02,5.988328241669483437e-02,3.381079064617081853e-02,2.220558802737489928e-02
2.970000000000000195e+00,6.938692567558407687e-02,5.907168938550334814e-02,3.406962520075648010e-02,2.206180709748085944e-02
2.971000000000000085e+00,6.940495290573581166e-02,5.826092450250689586e-02,3.432414103761975699e-02,2.192444413912294013e-02
2.971999999999999975e+00,6.942643301636115816e-02,5.745192187603728740e-02,3.457368041664959923e-02,2.179334643229683191e-02
2.972999999999999865e+00,6.945030072874820715e-02,5.664557667014214620e-02,3.481768155692891581e-02,2.166837450096082904e-02
2.974000000000000199e+00,6.947554240709429008e-02,5.584275534767221133e-02,3.505569666629382991e-02,2.154943265120656121e-02
2.975000000000000089e+00,6.950125589592938413e-02,5.504430801767479925e-02,3.528737292360678568e-02,2.143648672867096497e-02
2.975999999999999979e+00,6.952671847405617056e-02,5.425108038873301813e-02,3.551240800155504307e-02,2.132956349771484086e-02
2.976999999999999869e+00,6.955143247915984706e-02,5.346391731191027508e-02,3.573050007172418746e-02,2.122873730570106615e-02
2.978000000000000203e+00,6.957512435602011824e-02,5.268365822588131492e-02,3.594130820626914580e-02,2.113410615127031544e-02
2.979000000000000092e+00,6.959769006268137770e-02,5.191113313611692148e-02,3.614443367709924831e-02,2.104576407945162736e-02
2.979999999999999982e+00,6.961910616326323631e-02,5.114716060492324745e-02,3.633942524788801726e-02,2.096378287067652071e-02
2.980999999999999872e+00,6.963933757336371322e-02,5.039254292626269005e-02,3.652580438348599495e-02,2.088820489734668009e-02
2.982000000000000206e+00,6.965826776873480786e-02,4.964806076717832861e-02,3.670309744372081406e-02,2.081904382544038853e-02
2.983000000000000096e+00,6.967567520932231584e-02,4.891447250212323933e-02,3.687085600638143057e-02,2.075629390398963520e-02
2.983999999999999986e+00,6.969125061304688729e-02,4.819251599333648772e-02,3.702865823996354111e-02,2.069993977344542976e-02
2.984999999999999876e+00,6.970461539425716613e-02,4.748290758772888420e-02,3.717610096260108576e-02,2.064995441945841059e-02
2.986000000000000210e+00,6.971532517456813238e-02,4.678633638474664902e-02,3.731279235550579582e-02,2.060629113478923413e-02
2.987000000000000099e+00,6.972287877612702578e-02,4.610345488050939661e-02,3.743835059985598651e-02,2.056888042404991096e-02
2.987999999999999989e+00,6.972673634929496544e-02,4.543486759514032275e-02,3.755241181951502610e-02,2.053762751494694547e-02
2.988999999999999879e+00,6.972632598265131321e-02,4.478111904795192832e-02,3.765464054483831646e-02,2.051240699410358109e-02
2.990000000000000213e+00,6.972102121873530178e-02,4.414268450755622075e-02,3.774472692327402595e-02,2.049305921457459864e-02
2.991000000000000103e+00,6.971010294077163716e-02,4.351996769788331332e-02,3.782236409688890383e-02,2.047939012561841854e-02
2.991999999999999993e+00,6.969275356416515521e-02,4.291330438535752995e-02,3.788721861942103558e-02,2.047117346503202553e-02
2.992999999999999883e+00,6.966810932091585529e-02,4.232296665035933242e-02,3.793891418913539898e-02,2.046815511964187109e-02
2.994000000000000217e+00,6.963535550959432108e-02,4.174916523935645607e-02,3.797703438253918762e-02,2.047006293264042390e-02
2.995000000000000107e+00,6.959382539558869873e-02,4.119204930802782688e-02,3.800113444749425584e-02,2.047662650192005884e-02
2.995999999999999996e+00,6.954304294778318463e-02,4.065170596878156517e-02,3.801076017297248116e-02,2.048760243151115032e-02
2.996999999999999886e+00,6.948268435589653735e-02,4.012816724721014056e-02,3.800548259758426695e-02,2.050278961312755957e-02
2.998000000000000220e+00,6.941249232360023613e-02,3.962142623618075676e-02,3.798494859795097101e-02,2.052202258064263554e-02
2.999000000000000110e+00,6.933219150586825141e-02,3.913145393226501179e-02,3.794893902809493708e-02,2.054514960346832605e-02
3.000000000000000000e+00,6.924145125739299134e-02,3.865821097938635514e-02,3.789741797247440924e-02,2.057201122192185705e-02
3.000999999999999890e+00,6.913991336936652077e-02,3.820165609618928620e-02,3.783054201888477741e-02,2.060242711427698326e-02
3.001999999999999780e+00,6.902725297702180796e-02,3.776175242642427349e-02,3.774860894952335177e-02,2.063619310040395310e-02
3.003000000000000114e+00,6.890324222242913410e-02,3.733847113882479002e-02,3.765196862473995515e-02,2.067308188644969430e-02
3.004000000000000004e+00,6.876781203408377507e-02,3.693179183864880172e-02,3.754094715156753442e-02,2.071283850448960712e-02
3.004999999999999893e+00,6.862109467861873813e-02,3.654169851073294645e-02,3.741581534410977350e-02,2.075517554801739606e-02
3.005999999999999783e+00,6.846342191409149347e-02,3.616817049114595672e-02,3.727679799947117290e-02,2.079977614023231780e-02
3.007000000000000117e+00,6.829527904906357305e-02,3.581117037588082974e-02,3.712410283524437277e-02,2.084630032257878129e-02
3.008000000000000007e+00,6.811723202734507043e-02,3.547063223894828671e-02,3.695794288291350677e-02,2.089439157400759667e-02
3.008999999999999897e+00,6.792984820864279849e-02,3.514645334990868647e-02,3.677854310992084708e-02,2.094368504655358051e-02
3.009999999999999787e+00,6.773363047645346302e-02,3.483849098607097461e-02,3.658614589188944471e-02,2.099381228771629929e-02
3.011000000000000121e+00,6.752898137290976044e-02,3.454656328382723490e-02,3.638102562132607132e-02,2.104440220826585273e-02
3.012000000000000011e+00,6.731621243854853109e-02,3.427045148404808672e-02,3.616350776798860772e-02,2.109508248888780635e-02
3.012999999999999901e+00,6.709559318945047812e-02,3.400990319537948448e-02,3.593398735868787858e-02,2.114547522326339773e-02
3.013999999999999790e+00,6.686741773892863894e-02,3.376463715611133926e-02,3.569294105215993496e-02,2.119518838034220240e-02
3.015000000000000124e+00,6.663206981704729304e-02,3.353434672321762428e-02,3.544092617571032583e-02,2.124381084709041009e-02
3.016000000000000014e+00,6.639005986881260646e-02,3.331869974678909607e-02,3.517856492677087082e-02,2.129091161893104447e-02
3.016999999999999904e+00,6.614201471765961127e-02,3.311733536888893797e-02,3.490651299519632877e-02,2.133605255130953740e-02
3.017999999999999794e+00,6.588862996851629905e-02,3.292985729254015170e-02,3.462542145862336496e-02,2.137882127194504905e-02
3.019000000000000128e+00,6.563061713078621739e-02,3.275582471950339719e-02,3.433590877935231711e-02,2.141886748871504528e-02
3.020000000000000018e+00,6.536866823957210304e-02,3.259474671529844630e-02,3.403854861198827436e-02,2.145592182140699730e-02
3.020999999999999908e+00,6.510343452374629802e-02,3.244608200420175809e-02,3.373387195145035461e-02,2.148979320696358178e-02
3.021999999999999797e+00,6.483551419706226615e-02,3.230924145827973604e-02,3.342238216168138404e-02,2.152035514859498497e-02
3.023000000000000131e+00,6.456544240551743974e-02,3.218359463494609857e-02,3.310457391809160099e-02,2.154753000458090040e-02
3.024000000000000021e+00,6.429367915255403132e-02,3.206848285662139419e-02,3.278094634661736506e-02,2.157127189933554304e-02
3.024999999999999911e+00,6.402060967470782349e-02,3.196323545591683163e-02,3.245201130999100098e-02,2.159154825221483789e-02
3.025999999999999801e+00,6.374654988796121802e-02,3.186718582141117445e-02,3.211829686034418929e-02,2.160832210936379852e-02
3.027000000000000135e+00,6.347175193587711872e-02,3.177969051637463682e-02,3.178034092793016047e-02,2.162153763345413954e-02
3.028000000000000025e+00,6.319644679032755674e-02,3.170015213796826409e-02,3.143867919056939769e-02,2.163111279492614669e-02
3.028999999999999915e+00,6.292091751239080322e-02,3.162803728359040584e-02,3.109383303567409690e-02,2.163693878876239013e-02
3.029999999999999805e+00,6.264553336422971908e-02,3.156288119538838005e-02,3.074629568242029376e-02,2.163887928654462459e-02
3.031000000000000139e+00,6.237071667351445220e-02,3.150427810925950090e-02,3.039651919951241732e-02,2.163676907641967281e-02
3.032000000000000028e+00,6.209688158969248889e-02,3.145186475454266051e-02,3.004491043240291662e-02,2.163041821581771981e-02
3.032999999999999918e+00,6.182438877534790489e-02,3.140530663306218689e-02,2.969183544990112653e-02,2.161962169064568506e-02
3.033999999999999808e+00,6.155352778581908019e-02,3.136429072020847225e-02,2.933762590564100922e-02,2.160417642511503616e-02
3.035000000000000142e+00,6.128451864317075587e-02,3.132852506873747694e-02,2.898258225454074938e-02,2.158390778789940831e-02
3.036000000000000032e+00,6.101753465731115517e-02,3.129774119225398055e-02,2.862697613675877287e-02,2.155868824008589854e-02
3.036999999999999922e+00,6.075273818241856000e-02,3.127169001165413381e-02,2.827106036521575758e-02,2.152843380613268798e-02
3.037999999999999812e+00,6.049029570019539420e-02,3.125013179014371478e-02,2.791508145225397169e-02,2.149308905843237347e-02
3.039000000000000146e+00,6.023036526133138807e-02,3.123282919579645558e-02,2.755928299652524519e-02,2.145261271288397692e-02
3.040000000000000036e+00,5.997307380706376478e-02,3.121954305654845579e-02,2.720390756907583793e-02,2.140696676314717689e-02
3.040999999999999925e+00,5.971848988459713126e-02,3.121002355238596329e-02,2.684920442605420732e-02,2.135611009536002997e-02
3.041999999999999815e+00,5.946659799285886061e-02,3.120399688565817994e-02,2.649543541402931204e-02,2.129999650707162587e-02
3.043000000000000149e+00,5.921729215913082434e-02,3.120115246450001767e-02,2.614287596386658669e-02,2.123857472751086717e-02
3.044000000000000039e+00,5.897040259034289772e-02,3.120113322279782428e-02,2.579180819009182710e-02,2.117178627606783672e-02
3.044999999999999929e+00,5.872573629809828277e-02,3.120352965607044171e-02,2.544250426412231897e-02,2.109956134438857253e-02
3.045999999999999819e+00,5.848310073581469704e-02,3.120788036953700204e-02,2.509521483066861486e-02,2.102181322894038432e-02
3.047000000000000153e+00,5.824230672345739879e-02,3.121368426914336233e-02,2.475016896962584090e-02,2.093842922091212685e-02
3.048000000000000043e+00,5.800315115117976594e-02,3.122042449207418705e-02,2.440757252556156193e-02,2.084926253696054235e-02
3.048999999999999932e+00,5.776538730082583784e-02,3.122759887756981420e-02,2.406760251845235787e-02,2.075413208791595382e-02
3.049999999999999822e+00,5.752870593033543312e-02,3.123474961896108640e-02,2.373040570891863862e-02,2.065283409794744368e-02
3.051000000000000156e+00,5.729273388328078725e-02,3.124147965427798851e-02,2.339610539255710525e-02,2.054517295549880898e-02
3.052000000000000046e+00,5.705704381320898105e-02,3.124745071809683847e-02,2.306482067799430630e-02,2.043100994887986008e-02
3.052999999999999936e+00,5.682117437401044968e-02,3.125237416145185132e-02,2.273669256937855751e-02,2.031030702508752200e-02
3.053999999999999826e+00,5.658465863530294515e-02,3.125600384367716728e-02,2.241190009059787144e-02,2.018314201715969494e-02
3.055000000000000160e+00,5.634704445830349129e-02,3.125813060128192905e-02,2.209066219881269597e-02,2.004969400477584623e-02
3.056000000000000050e+00,5.610790264300859892e-02,3.125857731715675492e-02,2.177323225271464088e-02,1.991021458444237197e-02
3.056999999999999940e+00,5.586683548095601470e-02,3.125719551357349774e-02,2.145988440019801907e-02,1.976499851635530464e-02
3.057999999999999829e+00,5.562348128660633134e-02,3.125386451251450926e-02,2.115089264670396221e-02,1.961435593927876933e-02
3.059000000000000163e+00,5.537751465025089054e-02,3.124849408945080953e-02,2.084651321575689553e-02,1.945859050350064526e-02
3.060000000000000053e+00,5.512865462916301945e-02,3.124102858039042030e-02,2.054697730957473836e-02,1.929799297842210715e-02
3.060999999999999943e+00,5.487666578457955219e-02,3.123144784083223616e-02,2.025249120488180343e-02,1.913284866043878790e-02
3.061999999999999833e+00,5.462132986544633584e-02,3.121976467391756813e-02,1.996323851441200031e-02,1.896344974969682573e-02
3.063000000000000167e+00,5.436242312556950618e-02,3.120602149107964268e-02,1.967938401838172785e-02,1.879010780085368579e-02
3.064000000000000057e+00,5.409975725847401135e-02,3.119028489854432790e-02,1.940107708751241666e-02,1.861316172273300151e-02
3.064999999999999947e+00,5.383326179677255102e-02,3.117263728833495270e-02,1.912845014975366256e-02,1.843297838631157912e-02
3.065999999999999837e+00,5.356303363815640567e-02,3.115317026779796869e-02,1.886161575792601533e-02,1.824994658693716507e-02
3.067000000000000171e+00,5.328933538519027568e-02,3.113198175822335517e-02,1.860066774984173860e-02,1.806446819399665921e-02
3.068000000000000060e+00,5.301256615271018185e-02,3.110917098167994416e-02,1.834568268193001450e-02,1.787695015676423957e-02
3.068999999999999950e+00,5.273320228216585304e-02,3.108482761903522129e-02,1.809671694433924449e-02,1.768779511652336656e-02
3.069999999999999840e+00,5.245171541810439431e-02,3.105902055156444311e-02,1.785380398522993725e-02,1.749739180920563408e-02
3.071000000000000174e+00,5.216851493686891494e-02,3.103179259499813311e-02,1.761695968438833221e-02,1.730611285641771649e-02
3.072000000000000064e+00,5.188394410603232310e-02,3.100315895860087864e-02,1.738619527925565691e-02,1.711431828357485446e-02
3.072999999999999954e+00,5.159832178418984755e-02,3.097310337540674918e-02,1.716153151763575441e-02,1.692235681312369636e-02
3.073999999999999844e+00,5.131199944608495073e-02,3.094157096414471703e-02,1.694300745057893479e-02,1.673056340616807525e-02
3.075000000000000178e+00,5.102540040070766697e-02,3.090846254968309184e-02,1.673067481750098104e-02,1.653925368354189698e-02
3.076000000000000068e+00,5.073902631420895010e-02,3.087363201996200235e-02,1.652458012820895439e-02,1.634871864943605868e-02
3.076999999999999957e+00,5.045343127594647398e-02,3.083688426198040802e-02,1.632474953783069962e-02,1.615922758465345235e-02
3.077999999999999847e+00,5.016918130181571844e-02,3.079797700268047805e-02,1.613118317032241622e-02,1.597103611548656571e-02
3.079000000000000181e+00,4.988682053031905095e-02,3.075663001156286880e-02,1.594385769550903109e-02,1.578438778258128838e-02
3.080000000000000071e+00,4.960685339570670288e-02,3.071253803678298394e-02,1.576273637100766498e-02,1.559950850531328925e-02
3.080999999999999961e+00,4.932975550656282238e-02,3.066538319459161457e-02,1.558777576704322224e-02,1.541660060326172262e-02
3.081999999999999851e+00,4.905600269673595498e-02,3.061484426511231274e-02,1.541891936883448867e-02,1.523583999242192691e-02
3.083000000000000185e+00,4.878607991251829312e-02,3.056060391748978075e-02,1.525608968713825474e-02,1.505737953202052580e-02
3.084000000000000075e+00,4.852046523343309103e-02,3.050235889469593911e-02,1.509919053977204495e-02,1.488135638663428371e-02
3.084999999999999964e+00,4.825961222367877029e-02,3.043983694207003446e-02,1.494811160328736975e-02,1.470789532927403373e-02
3.085999999999999854e+00,4.800393903037066673e-02,3.037282141008592132e-02,1.480272826586228122e-02,1.453710573619144443e-02
3.087000000000000188e+00,4.775381873733652166e-02,3.030117653090425717e-02,1.466290055384342726e-02,1.436907844734815025e-02
3.088000000000000078e+00,4.750956841030838651e-02,3.022486000254432856e-02,1.452847266218636364e-02,1.420388952382597991e-02
3.088999999999999968e+00,4.727144458334611027e-02,3.014391968208977868e-02,1.439927709393471443e-02,1.404161096504422807e-02
3.089999999999999858e+00,4.703964899692988227e-02,3.005848324801873098e-02,1.427515274191288805e-02,1.388232248739261487e-02
3.091000000000000192e+00,4.681434011375903287e-02,2.996874863928445168e-02,1.415597138321850537e-02,1.372611873528606190e-02
3.092000000000000082e+00,4.659563993970516904e-02,2.987497656609518909e-02,1.404165260423879957e-02,1.357310705583428083e-02
3.092999999999999972e+00,4.638362913088790729e-02,2.977748060458330209e-02,1.393215775746669237e-02,1.342339847455505282e-02
3.093999999999999861e+00,4.617833833706845581e-02,2.967661076066064121e-02,1.382747154400173865e-02,1.327709949966489854e-02
3.095000000000000195e+00,4.597974263744945139e-02,2.957273535721206478e-02,1.372758371103175237e-02,1.313430448258138053e-02
3.096000000000000085e+00,4.578776180518968897e-02,2.946623044692721696e-02,1.363247582384656716e-02,1.299508953163628494e-02
3.096999999999999975e+00,4.560226388600133185e-02,2.935747884718968928e-02,1.354211476715524651e-02,1.285951527351086345e-02
3.097999999999999865e+00,4.542306423544996419e-02,2.924687281752319165e-02,1.345645412895654473e-02,1.272763572975995315e-02
3.099000000000000199e+00,4.524992100247642035e-02,2.913481466474717937e-02,1.337543746586386875e-02,1.259950087801102285e-02
3.100000000000000089e+00,4.508253091345908181e-02,2.902171655703023739e-02,1.329899737186671441e-02,1.247515184656338046e-02
3.100999999999999979e+00,4.492053225112140058e-02,2.890800229098096710e-02,1.322705218539867514e-02,1.235461964219333741e-02
3.101999999999999869e+00,4.476352168527780728e-02,2.879410739052777612e-02,1.315950603525251061e-02,1.223792946979441847e-02
3.103000000000000203e+00,4.461108273456376727e-02,2.868047210054626775e-02,1.309625940086618992e-02,1.212510374881133578e-02
3.104000000000000092e+00,4.446281643549734180e-02,2.856752826058499978e-02,1.303722579643715879e-02,1.201616316164693353e-02
3.104999999999999982e+00,4.431835947979225615e-02,2.845568691270215778e-02,1.298233774017795543e-02,1.191112852080410296e-02
3.105999999999999872e+00,4.417739239956721548e-02,2.834533204033186024e-02,1.293153905799359488e-02,1.181002064414473848e-02
3.107000000000000206e+00,4.403965132509430475e-02,2.823682079466633896e-02,1.288477498563044520e-02,1.171285598564649269e-02
3.108000000000000096e+00,4.390494202471302565e-02,2.813048612330965037e-02,1.284198485699493408e-02,1.161964218681924878e-02
3.108999999999999986e+00,4.377314925742025603e-02,2.802663547601725799e-02,1.280309873028364666e-02,1.153037744399773232e-02
3.109999999999999876e+00,4.364423109506430226e-02,2.792554328972757932e-02,1.276804197986431376e-02,1.144505053119556498e-02
3.111000000000000210e+00,4.351818841494833195e-02,2.782744337505277388e-02,1.273674092641305031e-02,1.136363756950796444e-02
3.112000000000000099e+00,4.339501608064535304e-02,2.773252895684745131e-02,1.270911785182810005e-02,1.128609894069608835e-02
3.112999999999999989e+00,4.327466084953017489e-02,2.764096091195649904e-02,1.268508111018222528e-02,1.121238086814574549e-02
3.113999999999999879e+00,4.315700736146693001e-02,2.755287862091755982e-02,1.266452480394980248e-02,1.114242295159263013e-02
3.115000000000000213e+00,4.304188361971082039e-02,2.746840620428647392e-02,1.264734033463296541e-02,1.107616854103177229e-02
3.116000000000000103e+00,4.292907953636520418e-02,2.738765241478222784e-02,1.263342751082820702e-02,1.101356855688754091e-02
3.116999999999999993e+00,4.281838939654784848e-02,2.731070924921337115e-02,1.262269529994389239e-02,1.095457656107100101e-02
3.117999999999999883e+00,4.270965668193405645e-02,2.723764964779933420e-02,1.261505612091228315e-02,1.089914568534877150e-02
3.119000000000000217e+00,4.260279126781177372e-02,2.716852345787315950e-02,1.261041901001443317e-02,1.084723020697458962e-02
3.120000000000000107e+00,4.249776755735358569e-02,2.710335952699548592e-02,1.260868365263694522e-02,1.079878274801521557e-02
3.120999999999999996e+00,4.239461760940204521e-02,2.704217657447410827e-02,1.260974064142020463e-02,1.075374667267914482e-02
3.121999999999999886e+00,4.229341612175000625e-02,2.698499489327397388e-02,1.261347921135395726e-02,1.071205316263700719e-02
3.123000000000000220e+00,4.219425578335155719e-02,2.693184425332859414e-02,1.261979030380058417e-02,1.067362798201735956e-02
3.124000000000000110e+00,4.209723198917213194e-02,2.688277001040256450e-02,1.262855937586709713e-02,1.063840143212917838e-02
3.125000000000000000e+00,4.200244841190843570e-02,2.683784122823166390e-02,1.263966492986594997e-02,1.060631192432475063e-02
3.125999999999999890e+00,4.191002372216626193e-02,2.679715817817016066e-02,1.265298761938984246e-02,1.057730665022150150e-02
3.126999999999999780e+00,4.182008715988565911e-02,2.676084995902033165e-02,1.266841467778492304e-02,1.055134475564276260e-02
3.128000000000000114e+00,4.173276662742261139e-02,2.672906296713332963e-02,1.268583635208151740e-02,1.052839553501462057e-02
3.129000000000000004e+00,4.164818143896430874e-02,2.670195369557145509e-02,1.270514000229638722e-02,1.050843009532788537e-02
3.129999999999999893e+00,4.156645565895688427e-02,2.667969100524708245e-02,1.272620422371042830e-02,1.049141552435569474e-02
3.130999999999999783e+00,4.148773881565474136e-02,2.666245935446771853e-02,1.274889776373961878e-02,1.047731259652735780e-02
3.132000000000000117e+00,4.141220862779038114e-02,2.665045922997926961e-02,1.277308325806138407e-02,1.046607339544093282e-02
3.133000000000000007e+00,4.134005752984627052e-02,2.664390735632710810e-02,1.279862251036299574e-02,1.045764082899964739e-02
3.133999999999999897e+00,4.127148261481231040e-02,2.664303350559220351e-02,1.282538175543757909e-02,1.045195257812591393e-02
3.134999999999999787e+00,4.120668255085786769e-02,2.664806903098343796e-02,1.285323047020931787e-02,1.044894619560393124e-02
3.136000000000000121e+00,4.114584551755572778e-02,2.665923169419493963e-02,1.288203448785538684e-02,1.044855974658024517e-02
3.137000000000000011e+00,4.108913645060466302e-02,2.667671659234030143e-02,1.291165491887111966e-02,1.045072846479135932e-02
3.137999999999999901e+00,4.103670817545181093e-02,2.670069515867636717e-02,1.294195208698030279e-02,1.045538283834959205e-02
3.138999999999999790e+00,4.098872067204594599e-02,2.673131947309754716e-02,1.297278321659002531e-02,1.046244964060309875e-02
3.140000000000000124e+00,4.094533732140163279e-02,2.676873094068098549e-02,1.300399505897777835e-02,1.047185277810536511e-02
3.141000000000000014e+00,4.090670712332286629e-02,2.681306972367403230e-02,1.303542070029550283e-02,1.048351228393161645e-02
3.141999999999999904e+00,4.087295760548970841e-02,2.686448018120521711e-02,1.306687906812237059e-02,1.049734159878499065e-02
3.142999999999999794e+00,4.084420495923168221e-02,2.692311022219963379e-02,1.309817513656937743e-02,1.051324473754515314e-02
3.144000000000000128e+00,4.082056875011102343e-02,2.698910505768613646e-02,1.312911185448565991e-02,1.053111656448719666e-02
3.145000000000000018e+00,4.080217069919506861e-02,2.706259878538674890e-02,1.315951443765095950e-02,1.055084654705835782e-02
3.145999999999999908e+00,4.078912274772677343e-02,2.714370661779621358e-02,1.318924866800516918e-02,1.057232476171478947e-02
3.146999999999999797e+00,4.078151982508984585e-02,2.723251818692705786e-02,1.321822088698800142e-02,1.059544827836743364e-02
3.148000000000000131e+00,4.077942958876343976e-02,2.732909190074018363e-02,1.324636179380892127e-02,1.062012462177630914e-02
3.149000000000000021e+00,4.078287800171944560e-02,2.743345072209413260e-02,1.327360655331014279e-02,1.064627455298080595e-02
3.149999999999999911e+00,4.079184289856575829e-02,2.754557972444648256e-02,1.329988530783602144e-02,1.067383855748287556e-02
3.150999999999999801e+00,4.080625658016976548e-02,2.766542319030075581e-02,1.332512646344816663e-02,1.070278346971788655e-02
3.152000000000000135e+00,4.082601703001487864e-02,2.779288251480546007e-02,1.334926603276226538e-02,1.073310055523295399e-02
3.153000000000000025e+00,4.085100194011510866e-02,2.792782308630820803e-02,1.337225441551754580e-02,1.076479412934538450e-02
3.153999999999999915e+00,4.088106426598760862e-02,2.807008931523700956e-02,1.339405453908966946e-02,1.079787276649640457e-02
3.154999999999999805e+00,4.091601585184882067e-02,2.821951738042398697e-02,1.341463728251792061e-02,1.083234829723512052e-02
3.156000000000000139e+00,4.095563483420979617e-02,2.837594430650270186e-02,1.343398336625282498e-02,1.086823503822504505e-02
3.157000000000000028e+00,4.099969143653729026e-02,2.853921788061586362e-02,1.345208502235216083e-02,1.090554764516853299e-02
3.157999999999999918e+00,4.104796167657608769e-02,2.870920614208758229e-02,1.346893828878844256e-02,1.094429964461589647e-02
3.158999999999999808e+00,4.110023186740085349e-02,2.888580508985644224e-02,1.348453119967119550e-02,1.098450242462053333e-02
3.160000000000000142e+00,4.115629635304889067e-02,2.906894646312129307e-02,1.349883633558500440e-02,1.102616412777559542e-02
3.161000000000000032e+00,4.121594048700964741e-02,2.925860461349162958e-02,1.351181089906783143e-02,1.106928704869403028e-02
3.161999999999999922e+00,4.127892016681526666e-02,2.945479915931648041e-02,1.352340304126629054e-02,1.111386426748696941e-02
3.162999999999999812e+00,4.134494506964749710e-02,2.965759200753213462e-02,1.353356119625012850e-02,1.115987643675136337e-02
3.164000000000000146e+00,4.141367293629583807e-02,2.986707972697217120e-02,1.354224352924766200e-02,1.120728950839160361e-02
3.165000000000000036e+00,4.148473545260340095e-02,3.008338557832451396e-02,1.354942220651781173e-02,1.125605568808711252e-02
3.165999999999999925e+00,4.155778801319231358e-02,3.030665543224248665e-02,1.355507830439432043e-02,1.130611979661087785e-02
3.166999999999999815e+00,4.163254886113907510e-02,3.053705425586606195e-02,1.355919422268661752e-02,1.135742805186270785e-02
3.168000000000000149e+00,4.170880430789046522e-02,3.077475837358117222e-02,1.356175563410614085e-02,1.140993259700180500e-02
3.169000000000000039e+00,4.178637445014214691e-02,3.101994846985304394e-02,1.356275955547874522e-02,1.146359328489582330e-02
3.169999999999999929e+00,4.186506327978179592e-02,3.127280990089692514e-02,1.356221831145330327e-02,1.151837812187455484e-02
3.170999999999999819e+00,4.194463550443916500e-02,3.153353453186817645e-02,1.356016232144980488e-02,1.157425814593835735e-02
3.172000000000000153e+00,4.202483144767070466e-02,3.180231303075355814e-02,1.355664243623136249e-02,1.163119990501349475e-02
3.173000000000000043e+00,4.210539861490677355e-02,3.207931785661974344e-02,1.355172845628133810e-02,1.168915979188348345e-02
3.173999999999999932e+00,4.218611918693104812e-02,3.236468694009110580e-02,1.354550873314563399e-02,1.174807987896703612e-02
3.174999999999999822e+00,4.226681459580924893e-02,3.265851413328283576e-02,1.353808968112345766e-02,1.180788727984541202e-02
3.176000000000000156e+00,4.234732511520895859e-02,3.296084513709442859e-02,1.352958760928046553e-02,1.186849853643887932e-02
3.177000000000000046e+00,4.242749664690330380e-02,3.327167742316232413e-02,1.352011641324536197e-02,1.192982642027032823e-02
3.177999999999999936e+00,4.250718000237548727e-02,3.359096710765148430e-02,1.350977950249747546e-02,1.199178471066879824e-02
3.178999999999999826e+00,4.258621024628892610e-02,3.391864385886147332e-02,1.349866598647175495e-02,1.205428785023786135e-02
3.180000000000000160e+00,4.266438233589516654e-02,3.425462699673942346e-02,1.348685090210107775e-02,1.211724773522688224e-02
3.181000000000000050e+00,4.274147039420144595e-02,3.459883490250204724e-02,1.347440322447896778e-02,1.218057199535359757e-02
3.181999999999999940e+00,4.281728188119172246e-02,3.495118759198053565e-02,1.346139622171098511e-02,1.224416311558168546e-02
3.182999999999999829e+00,4.289170341088820865e-02,3.531160866034550871e-02,1.344790906643008460e-02,1.230791763342322515e-02
3.184000000000000163e+00,4.296471583470894140e-02,3.568003035893490410e-02,1.343401955997874410e-02,1.237172772374564231e-02
3.185000000000000053e+00,4.303637850452401992e-02,3.605639788072780710e-02,1.341979600474437970e-02,1.243548668424996131e-02
3.185999999999999943e+00,4.310679941148385513e-02,3.644066708062893012e-02,1.340529372505513094e-02,1.249910021468423477e-02
3.186999999999999833e+00,4.317610886079423921e-02,3.683279798114977299e-02,1.339055470440163841e-02,1.256250062605054028e-02
3.188000000000000167e+00,4.324444601778926894e-02,3.723275161413659023e-02,1.337560679489064284e-02,1.262565501903258058e-02
3.189000000000000057e+00,4.331196456890180208e-02,3.764049174201105491e-02,1.336046334804531256e-02,1.268856253986001305e-02
3.189999999999999947e+00,4.337884722472067078e-02,3.805598919505839145e-02,1.334512279783208258e-02,1.275124169049679859e-02
3.190999999999999837e+00,4.344530600600605280e-02,3.847922684286166073e-02,1.332956718145323488e-02,1.281371386855418258e-02
3.192000000000000171e+00,4.351156550836373510e-02,3.891020189506589483e-02,1.331376150662478240e-02,1.287599179119507629e-02
3.193000000000000060e+00,4.357784970021795490e-02,3.934892601949268459e-02,1.329765486679775066e-02,1.293807597189852200e-02
3.193999999999999950e+00,4.364437316837881803e-02,3.979542467548834173e-02,1.328118571462817005e-02,1.299995718036632379e-02
3.194999999999999840e+00,4.371132010558251985e-02,4.024973382842189640e-02,1.326429277359670623e-02,1.306162030773788674e-02
3.196000000000000174e+00,4.377882179085576531e-02,4.071189815180566163e-02,1.324692410053378115e-02,1.312304426934096657e-02
3.197000000000000064e+00,4.384695523312585191e-02,4.118197438681658190e-02,1.322903558314933621e-02,1.318419797553768875e-02
3.197999999999999954e+00,4.391576590509919942e-02,4.166003076818242112e-02,1.321058022875428589e-02,1.324503899676858672e-02
3.198999999999999844e+00,4.398530734601692471e-02,4.214613512809650686e-02,1.319149767905401956e-02,1.330552210902158361e-02
3.200000000000000178e+00,4.405568277568271129e-02,4.264033928366073312e-02,1.317171162725192662e-02,1.336561869391388047e-02
3.201000000000000068e+00,4.412707282101083900e-02,4.314266934530324588e-02,1.315113306770313711e-02,1.342533577620094037e-02
3.201999999999999957e+00,4.419974331384278476e-02,4.365311934516376280e-02,1.312966803893240997e-02,1.348471950976030259e-02
3.202999999999999847e+00,4.427402186438189613e-02,4.417163969189683709e-02,1.310723488472675599e-02,1.354384050698797387e-02
3.204000000000000181e+00,4.435024963340957610e-02,4.469812103524570257e-02,1.308378606340739221e-02,1.360277247174546469e-02
3.205000000000000071e+00,4.442874731691800333e-02,4.523238422832644157e-02,1.305931872926312243e-02,1.366157836849921439e-02
3.205999999999999961e+00,4.450981139781499257e-02,4.577418402975648448e-02,1.303386578164283938e-02,1.372030806539716562e-02
3.206999999999999851e+00,4.459373007826161056e-02,4.632322301774395579e-02,1.300748106485496991e-02,1.377900240063542267e-02
3.208000000000000185e+00,4.468081705649301627e-02,4.687916649030204191e-02,1.298023688334509068e-02,1.383769835165458983e-02
3.209000000000000075e+00,4.477144850547674221e-02,4.744165290082071745e-02,1.295222568815577145e-02,1.389642854521829125e-02
3.209999999999999964e+00,4.486607609976433347e-02,4.801030031372359452e-02,1.292355185391934336e-02,1.395521402954654974e-02
3.210999999999999854e+00,4.496521016590249165e-02,4.858471057327937853e-02,1.289432076978582961e-02,1.401405909049969860e-02
3.212000000000000188e+00,4.506938113588536410e-02,4.916446836184226038e-02,1.286463406705548769e-02,1.407295132918169947e-02
3.213000000000000078e+00,4.517909534856785064e-02,4.974912807132016168e-02,1.283458766917038203e-02,1.413186200341654507e-02
3.213999999999999968e+00,4.529480492714901135e-02,5.033819308738470694e-02,1.280427137756645281e-02,1.419074609835057482e-02
3.214999999999999858e+00,4.541689438871070877e-02,5.093110657288592996e-02,1.277377580803418927e-02,1.424954786737961214e-02
3.216000000000000192e+00,4.554567909603367271e-02,5.152725934128111335e-02,1.274320388523333611e-02,1.430821398872646026e-02
3.217000000000000082e+00,4.568141189983750128e-02,5.212600527885023760e-02,1.271267184120676574e-02,1.436670943608776320e-02
3.217999999999999972e+00,4.582428668882543299e-02,5.272668188907332631e-02,1.268229553153531544e-02,1.442502900035738146e-02
3.218999999999999861e+00,4.597443298008338508e-02,5.332863387246289388e-02,1.265217662889764512e-02,1.448319490649664643e-02
3.220000000000000195e+00,4.613191220952547050e-02,5.393123095438686482e-02,1.262240217083847836e-02,1.454123886180272093e-02
3.221000000000000085e+00,4.629672258965913945e-02,5.453387445616186824e-02,1.259305747356384217e-02,1.459918453930295415e-02
3.221999999999999975e+00,4.646880622614280726e-02,5.513599451796788453e-02,1.256423916289354202e-02,1.465704181635201463e-02
3.222999999999999865e+00,4.664805757188414392e-02,5.573704483051496184e-02,1.253605361168160480e-02,1.471480594347484780e-02
3.224000000000000199e+00,4.683433559731983720e-02,5.633649435516976250e-02,1.250860403839305912e-02,1.477245749341721953e-02
3.225000000000000089e+00,4.702748053468484846e-02,5.693380497144984176e-02,1.248198195724225384e-02,1.482996766025808377e-02
3.225999999999999979e+00,4.722733493975898172e-02,5.752839438923806198e-02,1.245626789685263733e-02,1.488730504164406145e-02
3.226999999999999869e+00,4.743375355131446841e-02,5.811960332839691268e-02,1.243153248067736458e-02,1.494443736933135682e-02
3.228000000000000203e+00,4.764659405004243592e-02,5.870668585487347907e-02,1.240783408092410028e-02,1.500133763849135007e-02
3.229000000000000092e+00,4.786570325241157331e-02,5.928882293913834145e-02,1.238522427217934006e-02,1.505800292346477776e-02
3.229999999999999982e+00,4.809090274981876745e-02,5.986514463948488379e-02,1.236376561678661189e-02,1.511446855402575305e-02
3.230999999999999872e+00,4.832196904947221733e-02,6.043474816428631713e-02,1.234354478059866006e-02,1.517079998827946044e-02
3.232000000000000206e+00,4.855861368248907267e-02,6.099670838473995882e-02,1.232466842678311275e-02,1.522707257828062252e-02
3.233000000000000096e+00,4.880047242375894906e-02,6.155008316569553217e-02,1.230725013846984718e-02,1.528335639841394908e-02
3.233999999999999986e+00,4.904711311816541824e-02,6.209392116899004055e-02,1.229139890524326428e-02,1.533971187586760654e-02
3.234999999999999876e+00,4.929805988667394778e-02,6.262727814702179208e-02,1.227721245702662056e-02,1.539619399330159795e-02
3.236000000000000210e+00,4.955281413773081345e-02,6.314923698204469305e-02,1.226477611383998759e-02,1.545285664730787316e-02
3.237000000000000099e+00,4.981086978687687683e-02,6.365892587985870488e-02,1.225416413277457400e-02,1.550975258738273264e-02
3.237999999999999989e+00,5.007172623864433042e-02,6.415553572372567626e-02,1.224544238465209364e-02,1.556693107865286113e-02
3.238999999999999879e+00,5.033488088949856359e-02,6.463833476083240270e-02,1.223867529168162251e-02,1.562443433619964059e-02
3.240000000000000213e+00,5.059980817696906746e-02,6.510667226327442048e-02,1.223393081242998663e-02,1.568229427381138963e-02
3.241000000000000103e+00,5.086594817779567512e-02,6.555996984023525209e-02,1.223127421959236717e-02,1.574053040528110639e-02
3.241999999999999993e+00,5.113270177751098877e-02,6.599771340745419490e-02,1.223075621374300481e-02,1.579914942683621412e-02
3.242999999999999883e+00,5.139943495272079887e-02,6.641945738306978542e-02,1.223240696589488787e-02,1.585815198054840724e-02
3.244000000000000217e+00,5.166549784829026215e-02,6.682483735176257544e-02,1.223623861564484237e-02,1.591754419680604937e-02
3.245000000000000107e+00,5.193024471438961037e-02,6.721357736487440504e-02,1.224225029752303712e-02,1.597734050386614979e-02
3.245999999999999996e+00,5.219303292457652677e-02,6.758548364336244840e-02,1.225042986096636435e-02,1.603755942142577953e-02
3.246999999999999886e+00,5.245320771530367909e-02,6.794043061746234125e-02,1.226075329886963314e-02,1.609822555966023208e-02
3.248000000000000220e+00,5.271011956917049518e-02,6.827834974568204596e-02,1.227318392784648542e-02,1.615937580832699227e-02
3.249000000000000110e+00,5.296317900117092359e-02,6.859922421205048859e-02,1.228767134415028640e-02,1.622106152757395864e-02
3.250000000000000000e+00,5.321188816550653788e-02,6.890308820491267139e-02,1.230415390524196989e-02,1.628334586321405694e-02
3.250999999999999890e+00,5.345582023068326527e-02,6.919002908011706587e-02,1.232256413925087238e-02,1.634629750881550977e-02
3.251999999999999780e+00,5.369456943334836863e-02,6.946018648026100473e-02,1.234283033965929977e-02,1.640998497677161050e-02
3.253000000000000114e+00,5.392769797179317037e-02,6.971374550460175679e-02,1.236487366005684096e-02,1.647447576420661003e-02
3.254000000000000004e+00,5.415470122925896551e-02,6.995093014201056447e-02,1.238860313197120110e-02,1.653983706510493354e-02
3.254999999999999893e+00,5.437500162588031899e-02,7.017199835487325510e-02,1.241391058785485529e-02,1.660613311454169072e-02
3.255999999999999783e+00,5.458795999770729712e-02,7.037723151800515109e-02,1.244067073763047843e-02,1.667342124933542113e-02
3.257000000000000117e+00,5.479288638564291242e-02,7.056691540668133533e-02,1.246874717754614149e-02,1.674174793670436812e-02
3.258000000000000007e+00,5.498904941227945181e-02,7.074131722972730463e-02,1.249799644179934270e-02,1.681114285872067904e-02
3.258999999999999897e+00,5.517569795026321805e-02,7.090066511599403543e-02,1.252826862045364545e-02,1.688161343263291578e-02
3.259999999999999787e+00,5.535210244327674195e-02,7.104513332317913266e-02,1.255941463265011770e-02,1.695314170240576346e-02
3.261000000000000121e+00,5.551762207722114872e-02,7.117482757522827774e-02,1.259129845015408665e-02,1.702568270770863160e-02
3.262000000000000011e+00,5.567178109553304333e-02,7.128976441397760766e-02,1.262379851111719228e-02,1.709916970650533427e-02
3.262999999999999901e+00,5.581430707828927140e-02,7.138985029964177442e-02,1.265679751592206637e-02,1.717353122996852569e-02
3.263999999999999790e+00,5.594511728360593988e-02,7.147487049541720316e-02,1.269017252289743498e-02,1.724870518895174620e-02
3.265000000000000124e+00,5.606428135083767195e-02,7.154449424323189310e-02,1.272379001654959547e-02,1.732463144509666444e-02
3.266000000000000014e+00,5.617198634561169912e-02,7.159829789770007225e-02,1.275750773669667715e-02,1.740123439033569239e-02
3.266999999999999904e+00,5.626850510080530499e-02,7.163579658529811711e-02,1.279118658833729508e-02,1.747841766502596789e-02
3.267999999999999794e+00,5.635415452685133691e-02,7.165647110009870646e-02,1.282470846915550675e-02,1.755606786641942738e-02
3.269000000000000128e+00,5.642924743147211680e-02,7.165978925405212807e-02,1.285798368110592851e-02,1.763405358349807994e-02
3.270000000000000018e+00,5.649404917118471675e-02,7.164522996653858999e-02,1.289093704437297566e-02,1.771222033019417830e-02
3.270999999999999908e+00,5.654874767312022266e-02,7.161231112837369850e-02,1.292348655177385196e-02,1.779038786067689212e-02
3.271999999999999797e+00,5.659344444912751959e-02,7.156061218903732313e-02,1.295553484092473728e-02,1.786834919393150839e-02
3.273000000000000131e+00,5.662815441893802315e-02,7.148978543811528030e-02,1.298697536736659330e-02,1.794587010880106109e-02
3.274000000000000021e+00,5.665280768969878367e-02,7.139955951373914977e-02,1.301770123328557273e-02,1.802269099900155949e-02
3.274999999999999911e+00,5.666727878953042863e-02,7.128974034534525661e-02,1.304760585455456631e-02,1.809852968237941201e-02
3.275999999999999801e+00,5.667144970087707040e-02,7.116021159110698380e-02,1.307657944274826997e-02,1.817308425054279392e-02
3.277000000000000135e+00,5.666527269407822809e-02,7.101093625762079642e-02,1.310451375890534474e-02,1.824603717307388476e-02
3.278000000000000025e+00,5.664880304335111194e-02,7.084196297560700628e-02,1.313131364693394948e-02,1.831705559870973679e-02
3.278999999999999915e+00,5.662218954104006330e-02,7.065343897841981635e-02,1.315690295827629322e-02,1.838578438739323084e-02
3.279999999999999805e+00,5.658562950632676364e-02,7.044562316950744862e-02,1.318121909157133828e-02,1.845184321953296375e-02
3.281000000000000139e+00,5.653931248894469852e-02,7.021888725218347616e-02,1.320420199677421400e-02,1.851484106592058906e-02
3.282000000000000028e+00,5.648337906278166204e-02,6.997370161926759480e-02,1.322578902779556441e-02,1.857440343072938246e-02
3.282999999999999918e+00,5.641791064628940561e-02,6.971061386970264784e-02,1.324591725300984513e-02,1.863019932667612719e-02
3.283999999999999808e+00,5.634294476682864816e-02,6.943022899383895219e-02,1.326452694751671657e-02,1.868196283390264126e-02
3.285000000000000142e+00,5.625850526378258637e-02,6.913319620595606563e-02,1.328156750686440742e-02,1.872950397984315604e-02
3.286000000000000032e+00,5.616463802926090904e-02,6.882020223181357921e-02,1.329700669650009728e-02,1.877270524061308218e-02
3.286999999999999922e+00,5.606143792029942563e-02,6.849196699918014275e-02,1.331083592879040052e-02,1.881151305875394114e-02
3.287999999999999812e+00,5.594906229101237471e-02,6.814923925797147786e-02,1.332306869446808761e-02,1.884593036789286927e-02
3.289000000000000146e+00,5.582773198997751513e-02,6.779279255403346249e-02,1.333373657720902418e-02,1.887600384553955388e-02
3.290000000000000036e+00,5.569771843267649208e-02,6.742342117082644748e-02,1.334288346426561536e-02,1.890180933833623261e-02
3.290999999999999925e+00,5.555931790677626908e-02,6.704193424114433808e-02,1.335055613853542399e-02,1.892344586193958275e-02
3.291999999999999815e+00,5.541282834535892626e-02,6.664914831948012819e-02,1.335679638203806502e-02,1.894103174887859509e-02
3.293000000000000149e+00,5.525854108028539075e-02,6.624588145973420161e-02,1.336163896064217031e-02,1.895469264127397357e-02
3.294000000000000039e+00,5.509672920776394894e-02,6.583295166822530908e-02,1.336510954023495748e-02,1.896454606535442899e-02
3.294999999999999929e+00,5.492762814547205025e-02,6.541118117454844394e-02,1.336721993810018744e-02,1.897069114039448209e-02
3.295999999999999819e+00,5.475143329034780348e-02,6.498140410151918844e-02,1.336796861073541107e-02,1.897320661715460460e-02
3.297000000000000153e+00,5.456832223290478123e-02,6.454446925989902606e-02,1.336734824952551942e-02,1.897215358509704228e-02
3.298000000000000043e+00,5.437850032310790477e-02,6.410123178280682787e-02,1.336535436158364613e-02,1.896757685601254545e-02
3.298999999999999932e+00,5.418226184027684356e-02,6.365253570044179798e-02,1.336198929606636533e-02,1.895951023422012133e-02
3.299999999999999822e+00,5.398002698652720061e-02,6.319919455057169955e-02,1.335725749977173873e-02,1.894799039175163249e-02
3.301000000000000156e+00,5.377232260593240581e-02,6.274197804802600364e-02,1.335115899015718900e-02,1.893306863588922404e-02
3.302000000000000046e+00,5.355972376377651778e-02,6.228160455605406126e-02,1.334369403524593087e-02,1.891481457124264548e-02
3.302999999999999936e+00,5.334279786107171822e-02,6.181873131159479340e-02,1.333487536427478866e-02,1.889331552500017261e-02
3.303999999999999826e+00,5.312207318850014487e-02,6.135394060651905290e-02,1.332473381137629261e-02,1.886866968838571759e-02
3.305000000000000160e+00,5.289801995858832429e-02,6.088772521306463209e-02,1.331331263006480664e-02,1.884097207919228564e-02
3.306000000000000050e+00,5.267103467298773350e-02,6.042047659529960202e-02,1.330065851691120300e-02,1.881030264512745936e-02
3.306999999999999940e+00,5.244144082921435579e-02,5.995247823804227688e-02,1.328682032111104701e-02,1.877672541852514962e-02
3.307999999999999829e+00,5.220950227894839007e-02,5.948390195574056183e-02,1.327185225259732045e-02,1.874029656166572785e-02
3.309000000000000163e+00,5.197542876518143617e-02,5.901480833005343790e-02,1.325580940117386183e-02,1.870107279531878913e-02
3.310000000000000053e+00,5.173938262750932271e-02,5.854515517310336647e-02,1.323873773349912991e-02,1.865911786796005389e-02
3.310999999999999943e+00,5.150150116857188376e-02,5.807480957737409105e-02,1.322067052467888228e-02,1.861450750384901001e-02
3.311999999999999833e+00,5.126192125377595360e-02,5.760355793311911637e-02,1.320163146171351477e-02,1.856732719420824129e-02
3.313000000000000167e+00,5.102080135158409968e-02,5.713111609738589364e-02,1.318163465129702609e-02,1.851766281968006064e-02
3.314000000000000057e+00,5.077833763535295752e-02,5.665714239444576139e-02,1.316067957356080800e-02,1.846559293107892519e-02
3.314999999999999947e+00,5.053476443805609425e-02,5.618125149906973842e-02,1.313874834620982514e-02,1.841118852194493713e-02
3.315999999999999837e+00,5.029035365086310938e-02,5.570302649353232188e-02,1.311581018536560686e-02,1.835452139864574700e-02
3.317000000000000171e+00,5.004541744295030320e-02,5.522203067411681626e-02,1.309183466901847441e-02,1.829567663551288220e-02
3.318000000000000060e+00,4.980029627057897673e-02,5.473782239228267704e-02,1.306680830708799833e-02,1.823475987300896342e-02
3.318999999999999950e+00,4.955532539024763011e-02,5.424997243282575488e-02,1.304074191398667953e-02,1.817189550734479853e-02
3.319999999999999840e+00,4.931079227438674856e-02,5.375808069175950360e-02,1.301366708201413987e-02,1.810722088019680112e-02
3.321000000000000174e+00,4.906691405549671453e-02,5.326178851367200512e-02,1.298562644359088462e-02,1.804088284092849812e-02
3.322000000000000064e+00,4.882384471517971919e-02,5.276078634633030173e-02,1.295666025311129413e-02,1.797303869248866731e-02
3.322999999999999954e+00,4.858168482824060802e-02,5.225482055444743978e-02,1.292679880456584253e-02,1.790385562925162280e-02
3.323999999999999844e+00,4.834048253358534664e-02,5.174370119790798472e-02,1.289606650232025600e-02,1.783350271478939889e-02
3.325000000000000178e+00,4.810024944240312572e-02,5.122730969927946632e-02,1.286448825315492095e-02,1.776214257420207637e-02
3.326000000000000068e+00,4.786100121475924535e-02,5.070560586474363168e-02,1.283208967938228619e-02,1.768992753713048011e-02
3.326999999999999957e+00,4.762280270250847380e-02,5.017863347775359389e-02,1.279889615868207847e-02,1.761699345690436944e-02
3.327999999999999847e+00,4.738579699496266867e-02,4.964652424460089253e-02,1.276493502366116140e-02,1.754345321289728019e-02
3.329000000000000181e+00,4.715021844401195289e-02,4.910950101160353742e-02,1.273023967290553941e-02,1.746940142356320433e-02
3.330000000000000071e+00,4.691640017086807363e-02,4.856788009656965582e-02,1.269485880442775341e-02,1.739493282029406715e-02
3.330999999999999961e+00,4.668476367505979691e-02,4.802207082268688393e-02,1.265886564631784998e-02,1.732016322355922622e-02
3.331999999999999851e+00,4.645577919339671097e-02,4.747256864139550586e-02,1.262235491310213092e-02,1.724523786120130131e-02
3.333000000000000185e+00,4.622991837526476550e-02,4.691994092244307357e-02,1.258543119194826046e-02,1.717032142445168441e-02
3.334000000000000075e+00,4.600761860446753171e-02,4.636481136651323526e-02,1.254820084217990461e-02,1.709558289677317808e-02
3.334999999999999964e+00,4.578926421100795036e-02,4.580784863221239178e-02,1.251076967274837581e-02,1.702119012086449057e-02
3.335999999999999854e+00,4.557518306028608690e-02,4.524975645712830952e-02,1.247324173763954790e-02,1.694730996295774894e-02
3.337000000000000188e+00,4.536564694170528572e-02,4.469126067119853774e-02,1.243571815928218652e-02,1.687410674540777700e-02
3.338000000000000078e+00,4.516087111805599380e-02,4.413309442510041092e-02,1.239830248111070329e-02,1.680174049486313909e-02
3.338999999999999968e+00,4.496101915618224559e-02,4.357598568829924163e-02,1.236111121572426585e-02,1.673036236214145087e-02
3.339999999999999858e+00,4.476621228622157389e-02,4.302064976285887438e-02,1.232427221778895424e-02,1.666010781471590624e-02
3.341000000000000192e+00,4.457653701734293206e-02,4.246778550113618905e-02,1.228790777899903611e-02,1.659109449665914157e-02
3.342000000000000082e+00,4.439206220567281508e-02,4.191806969052529891e-02,1.225212069565537187e-02,1.652342246713308510e-02
3.342999999999999972e+00,4.421287698920262771e-02,4.137214582652270350e-02,1.221699114072319695e-02,1.645717651344135932e-02
3.343999999999999861e+00,4.403913047208908582e-02,4.083060861704278233e-02,1.218257867439873250e-02,1.639243805934751524e-02
3.345000000000000195e+00,4.387104634472797221e-02,4.029398986001582472e-02,1.214892634912442468e-02,1.632929710303561779e-02
3.346000000000000085e+00,4.370890584662180667e-02,3.976275382328330749e-02,1.211606755144074322e-02,1.626784617345891984e-02
3.346999999999999975e+00,4.355301992203114425e-02,3.923730707714984112e-02,1.208403206770606968e-02,1.620816453070576119e-02
3.347999999999999865e+00,4.340370896036264275e-02,3.871801835004809456e-02,1.205284622254016065e-02,1.615031300015400476e-02
3.349000000000000199e+00,4.326127916987920763e-02,3.820523639509128266e-02,1.202252942398976572e-02,1.609434009795314077e-02
3.350000000000000089e+00,4.312599304546964329e-02,3.769929808006109578e-02,1.199309263294115989e-02,1.604028871850120622e-02
3.350999999999999979e+00,4.299805445217939198e-02,3.720053152808418251e-02,1.196454179003578547e-02,1.598819714790152696e-02
3.351999999999999869e+00,4.287762165334681186e-02,3.670926052397074230e-02,1.193688352980058764e-02,1.593809335715066361e-02
3.353000000000000203e+00,4.276482939507628145e-02,3.622580695354802455e-02,1.191012917276666576e-02,1.588998748078204043e-02
3.354000000000000092e+00,4.265978457318456846e-02,3.575048920259978058e-02,1.188429897455507527e-02,1.584386798202146868e-02
3.354999999999999982e+00,4.256254659214687291e-02,3.528362063713411101e-02,1.185942362336851220e-02,1.579970026109799724e-02
3.355999999999999872e+00,4.247313481356180392e-02,3.482550929332686729e-02,1.183553755833012186e-02,1.575742484737336843e-02
3.357000000000000206e+00,4.239155518966075675e-02,3.437645700306393715e-02,1.181267069425970088e-02,1.571695868849460470e-02
3.358000000000000096e+00,4.231780926637648127e-02,3.393675790380534796e-02,1.179084531780510460e-02,1.567820366915264121e-02
3.358999999999999986e+00,4.225188228682969643e-02,3.350669677534157814e-02,1.177007893805467366e-02,1.564105567525187271e-02
3.359999999999999876e+00,4.219372815662151416e-02,3.308654721007186356e-02,1.175039539658355101e-02,1.560540966697299310e-02
3.361000000000000210e+00,4.214326526815504598e-02,3.267657054677810397e-02,1.173183687452318547e-02,1.557116836660625385e-02
3.362000000000000099e+00,4.210037743987125880e-02,3.227701834188798080e-02,1.171446286815792243e-02,1.553825187600495206e-02
3.362999999999999989e+00,4.206490533756209599e-02,3.188813838167608994e-02,1.169833918169713334e-02,1.550659578994852995e-02
3.363999999999999879e+00,4.203663837218337557e-02,3.151017686629056791e-02,1.168353061216051425e-02,1.547613759180691516e-02
3.365000000000000213e+00,4.201531640325747996e-02,3.114337032629202126e-02,1.167010126355395860e-02,1.544680277887829078e-02
3.366000000000000103e+00,4.200064122990222054e-02,3.078793144150458391e-02,1.165811729543791281e-02,1.541850513355306519e-02
3.366999999999999993e+00,4.199230307952730307e-02,3.044403940634431149e-02,1.164764702886041635e-02,1.539116351464809088e-02
3.367999999999999883e+00,4.199000084524260462e-02,3.011184122439327857e-02,1.163875712411541717e-02,1.536471736467169558e-02
3.369000000000000217e+00,4.199343432103321699e-02,2.979146019048813793e-02,1.163150699986291794e-02,1.533912514826857310e-02
3.370000000000000107e+00,4.200228604824704504e-02,2.948300099579651348e-02,1.162594673531493726e-02,1.531434987956771694e-02
3.370999999999999996e+00,4.201621245954402506e-02,2.918654413205442472e-02,1.162212259261615616e-02,1.529034761236301027e-02
3.371999999999999886e+00,4.203484711056586220e-02,2.890213563991066506e-02,1.162008458031098777e-02,1.526707132659653639e-02
3.373000000000000220e+00,4.205780938745339037e-02,2.862978360138315401e-02,1.161988653866139788e-02,1.524448432008516756e-02
3.374000000000000110e+00,4.208470435908643476e-02,2.836945942866826373e-02,1.162158103884657068e-02,1.522256268472092604e-02
3.375000000000000000e+00,4.211511949669377586e-02,2.812109667662972962e-02,1.162521553292808138e-02,1.520128250949789872e-02
3.375999999999999890e+00,4.214863619478534384e-02,2.788459100692062750e-02,1.163082853478407223e-02,1.518060830210601724e-02
3.376999999999999780e+00,4.218484725504455940e-02,2.765980635139938040e-02,1.163844456003754191e-02,1.516048992970787067e-02
3.378000000000000114e+00,4.222336443516597204e-02,2.744658399137009722e-02,1.164807030009656214e-02,1.514086166355128188e-02
3.379000000000000004e+00,4.226380603763602722e-02,2.724474825315256407e-02,1.165969471524248673e-02,1.512164096194021541e-02
3.379999999999999893e+00,4.230577242037249913e-02,2.705410543156310313e-02,1.167329346557701222e-02,1.510273294838974933e-02
3.380999999999999783e+00,4.234885858545656828e-02,2.687443961075399596e-02,1.168883656145262157e-02,1.508404511133287600e-02
3.382000000000000117e+00,4.239271628805314079e-02,2.670551083219433255e-02,1.170629795785714869e-02,1.506550021221150955e-02
3.383000000000000007e+00,4.243710665242849539e-02,2.654705415021933052e-02,1.172566295684315980e-02,1.504703217484579074e-02
3.383999999999999897e+00,4.248191112124358182e-02,2.639877785200616875e-02,1.174692804521071388e-02,1.502857619858792917e-02
3.384999999999999787e+00,4.252711202814357661e-02,2.626036279754447034e-02,1.177009337280990851e-02,1.501006978686235394e-02
3.386000000000000121e+00,4.257275162933697038e-02,2.613146326054988436e-02,1.179515358135081911e-02,1.499145817614484094e-02
3.387000000000000011e+00,4.261888738349575712e-02,2.601171005794839994e-02,1.182209180200824092e-02,1.497269828815405400e-02
3.387999999999999901e+00,4.266555784374415072e-02,2.590071781083481267e-02,1.185088136765195463e-02,1.495376605645515854e-02
3.388999999999999790e+00,4.271276128790978122e-02,2.579809645967067258e-02,1.188149822359864036e-02,1.493466571655149323e-02
3.390000000000000124e+00,4.276046098774059778e-02,2.570346481556443768e-02,1.191393355206163754e-02,1.491543641379852563e-02
3.391000000000000014e+00,4.280861823291991219e-02,2.561645956794661450e-02,1.194819056403537486e-02,1.489614984274549060e-02
3.391999999999999904e+00,4.285723047714835171e-02,2.553673452339479122e-02,1.198426973727765091e-02,1.487689448738588500e-02
3.392999999999999794e+00,4.290635790140939765e-02,2.546395474242571511e-02,1.202216145017047377e-02,1.485775845708218849e-02
3.394000000000000128e+00,4.295612363531928907e-02,2.539779261893782350e-02,1.206184946967542651e-02,1.483882456580209834e-02
3.395000000000000018e+00,4.300668386573286428e-02,2.533792824958549725e-02,1.210331288824060755e-02,1.482017094754062118e-02
3.395999999999999908e+00,4.305819078909040032e-02,2.528405357774367659e-02,1.214652194144598754e-02,1.480186662461832961e-02
3.396999999999999797e+00,4.311076508223495030e-02,2.523587434010128236e-02,1.219143356212094680e-02,1.478397086777086776e-02
3.398000000000000131e+00,4.316448361071830581e-02,2.519310564787038964e-02,1.223799205143880769e-02,1.476654748674069775e-02
3.399000000000000021e+00,4.321938766035864771e-02,2.515546564668816668e-02,1.228613674957018329e-02,1.474967808284189004e-02
3.399999999999999911e+00,4.327549642742636871e-02,2.512267046045606536e-02,1.233580948717515925e-02,1.473345698361554906e-02
3.400999999999999801e+00,4.333281358443751008e-02,2.509442996822124766e-02,1.238695342853370941e-02,1.471798108679409425e-02
3.402000000000000135e+00,4.339133093275349823e-02,2.507044346979413890e-02,1.243950840225615910e-02,1.470334495092291867e-02
3.403000000000000025e+00,4.345102124538772342e-02,2.505039395284845705e-02,1.249340684399936376e-02,1.468963332234718595e-02
3.403999999999999915e+00,4.351182318100332846e-02,2.503394239986825309e-02,1.254856877209087514e-02,1.467691423956737212e-02
3.404999999999999805e+00,4.357363603282772557e-02,2.502072527072391264e-02,1.260490025229802497e-02,1.466523939673861944e-02
3.406000000000000139e+00,4.363632862023507364e-02,2.501035408809201832e-02,1.266229585850786772e-02,1.465464547277854981e-02
3.407000000000000028e+00,4.369975330023821020e-02,2.500241126422832194e-02,1.272064234248349891e-02,1.464515427031955197e-02
3.407999999999999918e+00,4.376374304466822129e-02,2.499644298298255712e-02,1.277982545526797596e-02,1.463677905986394620e-02
3.408999999999999808e+00,4.382809210962729934e-02,2.499195916194090275e-02,1.283973665868903477e-02,1.462953568019429058e-02
3.410000000000000142e+00,4.389255282375233852e-02,2.498844287768524700e-02,1.290027504088253965e-02,1.462344624293957819e-02
3.411000000000000032e+00,4.395684608218122791e-02,2.498536005799407642e-02,1.296134681254030620e-02,1.461853094950537821e-02
3.411999999999999922e+00,4.402066042612922531e-02,2.498216550836857355e-02,1.302286395066806594e-02,1.461479828377461321e-02
3.412999999999999812e+00,4.408365825813778671e-02,2.497831192376606668e-02,1.308474008665387080e-02,1.461224597581572797e-02
3.414000000000000146e+00,4.414551515079601085e-02,2.497326343214221339e-02,1.314688523858015615e-02,1.461087006272446948e-02
3.415000000000000036e+00,4.420597234492469607e-02,2.496650663672307646e-02,1.320920375325020449e-02,1.461066958642191771e-02
3.415999999999999925e+00,4.426487151864252900e-02,2.495755756044238521e-02,1.327159511100725955e-02,1.461164514819365823e-02
3.416999999999999815e+00,4.432216253613815993e-02,2.494596783221338793e-02,1.333395463422784415e-02,1.461379372591415857e-02
3.418000000000000149e+00,4.437788640645520810e-02,2.493132896046349953e-02,1.339617448108847142e-02,1.461709934487188771e-02
3.419000000000000039e+00,4.443214500374153414e-02,2.491327199924949290e-02,1.345814617150685975e-02,1.462152742435452769e-02
3.419999999999999929e+00,4.448507125610456220e-02,2.489146434731577887e-02,1.351976334535801884e-02,1.462702783774908269e-02
3.420999999999999819e+00,4.453681208308765682e-02,2.486560588602579683e-02,1.358092377924053316e-02,1.463354001543105617e-02
3.422000000000000153e+00,4.458752717683910072e-02,2.483542356166850915e-02,1.364152872004839243e-02,1.464099661395995219e-02
3.423000000000000043e+00,4.463738214167847773e-02,2.480066575317936561e-02,1.370147732681837108e-02,1.464932714886196807e-02
3.423999999999999932e+00,4.468652499413927615e-02,2.476110203583732280e-02,1.376066255982354158e-02,1.465845870988740328e-02
3.424999999999999822e+00,4.473506241813343665e-02,2.471653079421647081e-02,1.381897244101794493e-02,1.466831155749782033e-02
3.426000000000000156e+00,4.478304621848028938e-02,2.466678909564137476e-02,1.387628928323820718e-02,1.467879481225155963e-02
3.427000000000000046e+00,4.483046475280836468e-02,2.461175918381258709e-02,1.393248483260711885e-02,1.468980586011720858e-02
3.427999999999999936e+00,4.487723753308436175e-02,2.455137212742372968e-02,1.398741847250696904e-02,1.470122935107400636e-02
3.428999999999999826e+00,4.492322484518859044e-02,2.448560913281993753e-02,1.404094226744540853e-02,1.471293546051845313e-02
3.430000000000000160e+00,4.496824520652540486e-02,2.441449859511701792e-02,1.409291333910703270e-02,1.472478223959214870e-02
3.431000000000000050e+00,4.501208177632543689e-02,2.433811123318053646e-02,1.414321445896174652e-02,1.473661879552429048e-02
3.431999999999999940e+00,4.505449338965858419e-02,2.425655968297811202e-02,1.419176815622800319e-02,1.474828271570025919e-02
3.432999999999999829e+00,4.509524063598820132e-02,2.417000106632759271e-02,1.423852703079658139e-02,1.475959806631986504e-02
3.434000000000000163e+00,4.513410274641293379e-02,2.407863202836108343e-02,1.428345934969054917e-02,1.477038615823482275e-02
3.435000000000000053e+00,4.517086725380262124e-02,2.398267216597984100e-02,1.432655023388842812e-02,1.478048123442581366e-02
3.435999999999999943e+00,4.520529695211046584e-02,2.388234506447314831e-02,1.436780046463589748e-02,1.478973022710564425e-02
3.436999999999999833e+00,4.523710219369447144e-02,2.377786797691687840e-02,1.440721262872506070e-02,1.479797832119586140e-02
3.438000000000000167e+00,4.526594324194205959e-02,2.366945100085577486e-02,1.444477908906558958e-02,1.480505902185951135e-02
3.439000000000000057e+00,4.529144576958930163e-02,2.355730014409615491e-02,1.448047755173812595e-02,1.481079628102720779e-02
3.439999999999999947e+00,4.531321212355772510e-02,2.344162106640894708e-02,1.451427088911679854e-02,1.481501472441104118e-02
3.440999999999999837e+00,4.533084171903114384e-02,2.332262121317931272e-02,1.454610705586492116e-02,1.481754799181997199e-02
3.442000000000000171e+00,4.534396235124830976e-02,2.320050457812357358e-02,1.457591722592982246e-02,1.481823734022024407e-02
3.443000000000000060e+00,4.535225227475009335e-02,2.307545703563290695e-02,1.460362079396413867e-02,1.481692808431522845e-02
3.443999999999999950e+00,4.535542704747978077e-02,2.294763123389572876e-02,1.462913967014072177e-02,1.481347362137626182e-02
3.444999999999999840e+00,4.535318982543409122e-02,2.281714009049489941e-02,1.465240676906504232e-02,1.480774143799364236e-02
3.446000000000000174e+00,4.534519513381281980e-02,2.268405805009218387e-02,1.467336126362083111e-02,1.479961656780750742e-02
3.447000000000000064e+00,4.533106003185963934e-02,2.254842367250776622e-02,1.469194039691265607e-02,1.478900848641363092e-02
3.447999999999999954e+00,4.531038952423060984e-02,2.241023933396343176e-02,1.470807724273072957e-02,1.477586021541516491e-02
3.448999999999999844e+00,4.528277899123626243e-02,2.226947030216673562e-02,1.472170820117984016e-02,1.476014957820863220e-02
3.450000000000000178e+00,4.524780243741032687e-02,2.212604525528214655e-02,1.473278772505902390e-02,1.474187905215856853e-02
3.451000000000000068e+00,4.520501520450199290e-02,2.197985767206164787e-02,1.474129732598191377e-02,1.472106158823242514e-02
3.451999999999999957e+00,4.515397804681509086e-02,2.183077119827304610e-02,1.474723933072624553e-02,1.469771424953202413e-02
3.452999999999999847e+00,4.509428885166517909e-02,2.167863404921429107e-02,1.475062205958509176e-02,1.467186541276882181e-02
3.454000000000000181e+00,4.502561710366910497e-02,2.152330222476902741e-02,1.475144931210626079e-02,1.464356491755640713e-02
3.455000000000000071e+00,4.494774270697905055e-02,2.136466331604386371e-02,1.474972063977742116e-02,1.461288119270254607e-02
3.455999999999999961e+00,4.486058262416484782e-02,2.120265545724727210e-02,1.474543786889785484e-02,1.457989278193690119e-02
3.456999999999999851e+00,4.476418231679651222e-02,2.103728362370896332e-02,1.473861206519322051e-02,1.454468930967883072e-02
3.458000000000000185e+00,4.465868592498335038e-02,2.086863036433262916e-02,1.472927196020063639e-02,1.450736934300322738e-02
3.459000000000000075e+00,4.454432526687020222e-02,2.069685408226046991e-02,1.471747075734841301e-02,1.446802584146475792e-02
3.459999999999999964e+00,4.442143799716691266e-02,2.052217728257137858e-02,1.470328500395175902e-02,1.442673867891999286e-02
3.460999999999999854e+00,4.429048490729035892e-02,2.034487259111464330e-02,1.468680393206637895e-02,1.438358536449627079e-02
3.462000000000000188e+00,4.415203557979602983e-02,2.016524845509071531e-02,1.466811271084608043e-02,1.433865723838575502e-02
3.463000000000000078e+00,4.400672850959418819e-02,1.998363509935207130e-02,1.464728108897468857e-02,1.429206627575518862e-02
3.463999999999999968e+00,4.385522987480531404e-02,1.980037428369684632e-02,1.462436730943685904e-02,1.424393873576273485e-02
3.464999999999999858e+00,4.369820910792528157e-02,1.961581276267928414e-02,1.459943247119345477e-02,1.419440516024340730e-02
3.466000000000000192e+00,4.353633752480992603e-02,1.943029679810831870e-02,1.457254896224937160e-02,1.414359858584010241e-02
3.467000000000000082e+00,4.337029190294281605e-02,1.924416692597149744e-02,1.454379282299225057e-02,1.409165736183549088e-02
3.467999999999999972e+00,4.320075311216612507e-02,1.905775378811300561e-02,1.451323021942718325e-02,1.403872070743007218e-02
3.468999999999999861e+00,4.302839947670199922e-02,1.887137446257379503e-02,1.448091353869994553e-02,1.398491820728088586e-02
3.470000000000000195e+00,4.285388679648029914e-02,1.868532622849671671e-02,1.444688889001016947e-02,1.393036299765861193e-02
3.471000000000000085e+00,4.267783336710856412e-02,1.849988102461406353e-02,1.441120839579182467e-02,1.387515178407606325e-02
3.471999999999999975e+00,4.250082389602479610e-02,1.831528820931572696e-02,1.437394216381475583e-02,1.381936755814497375e-02
3.472999999999999865e+00,4.232341266868761692e-02,1.813178237064972526e-02,1.433518926399113963e-02,1.376307963231117315e-02
3.474000000000000199e+00,4.214611745383416153e-02,1.794958672652664095e-02,1.429508884615210244e-02,1.370634161596506750e-02
3.475000000000000089e+00,4.196941824460136833e-02,1.776891074307586013e-02,1.425382228278319896e-02,1.364919219992414071e-02
3.475999999999999979e+00,4.179377116275583698e-02,1.758994772687045779e-02,1.421159551986270371e-02,1.359165848229444522e-02
3.476999999999999869e+00,4.161962035326047943e-02,1.741287814982872550e-02,1.416861500411111842e-02,1.353376182186949266e-02
3.478000000000000203e+00,4.144738907302430303e-02,1.723787918870899050e-02,1.412507636427975249e-02,1.347552918881326882e-02
3.479000000000000092e+00,4.127746253590971331e-02,1.706513370900154813e-02,1.408116170522519944e-02,1.341700039407139021e-02
3.479999999999999982e+00,4.111017409858759575e-02,1.689483037044700944e-02,1.403703605022683237e-02,1.335821986362947453e-02
3.480999999999999872e+00,4.094579861703172285e-02,1.672715437830814278e-02,1.399284438997455693e-02,1.329922350193453451e-02
3.482000000000000206e+00,4.078456306277174898e-02,1.656227695253863902e-02,1.394871174430870053e-02,1.324003388015762388e-02
3.483000000000000096e+00,4.062665825019665805e-02,1.640035092997529573e-02,1.390474491797750838e-02,1.318065880848847717e-02
3.483999999999999986e+00,4.047222677340883701e-02,1.624151223713635878e-02,1.386103304995447288e-02,1.312108656157128135e-02
3.484999999999999876e+00,4.032134339342310220e-02,1.608588151884250694e-02,1.381764655044649508e-02,1.306128266360873265e-02
3.486000000000000210e+00,4.017401537465580680e-02,1.593356346435431670e-02,1.377463755045836742e-02,1.300119575398807521e-02
3.487000000000000099e+00,4.003020288985544711e-02,1.578464655710801884e-02,1.373204299094614965e-02,1.294077071286739954e-02
3.487999999999999989e+00,3.988984505047069723e-02,1.563920327511261060e-02,1.368988998457369016e-02,1.287995755419707976e-02
3.488999999999999879e+00,3.975288224070833154e-02,1.549728809086904288e-02,1.364820050279304253e-02,1.281871105958855284e-02
3.490000000000000213e+00,3.961926647609781416e-02,1.535893701031616418e-02,1.360699022045366163e-02,1.275699068255900862e-02
3.491000000000000103e+00,3.948894536563759411e-02,1.522417565992628674e-02,1.356626607984150711e-02,1.269476799926851085e-02
3.491999999999999993e+00,3.936183123163511377e-02,1.509303246246062637e-02,1.352603026464496358e-02,1.263203705250666095e-02
3.492999999999999883e+00,3.923779073065410128e-02,1.496554644616610551e-02,1.348628529262168273e-02,1.256881874873344573e-02
3.494000000000000217e+00,3.911665333493003632e-02,1.484176681986103252e-02,1.344703431690652366e-02,1.250515503811795021e-02
3.495000000000000107e+00,3.899821121928863377e-02,1.472174650391784752e-02,1.340828095536635879e-02,1.244109724604884788e-02
3.495999999999999996e+00,3.888221282920295563e-02,1.460553253858245040e-02,1.337003177827342931e-02,1.237669414487245489e-02
3.496999999999999886e+00,3.876836629058328515e-02,1.449315841937334932e-02,1.333229990990577284e-02,1.231198139938481824e-02
3.498000000000000220e+00,3.865635412689089057e-02,1.438464015209423887e-02,1.329510699766647125e-02,1.224697828812872265e-02
3.499000000000000110e+00,3.854585984420326461e-02,1.427997531867476050e-02,1.325848005950507925e-02,1.218169821045305551e-02
3.500000000000000000e+00,3.843660367550554707e-02,1.417914344093119429e-02,1.322244340063153875e-02,1.211616382006735701e-02
3.500999999999999890e+00,3.832836518258078001e-02,1.408210519603440847e-02,1.318701165138109165e-02,1.205041219904160604e-02
3.501999999999999780e+00,3.822098050931112961e-02,1.398880485723103494e-02,1.315218747223263589e-02,1.198449047967800780e-02
3.503000000000000114e+00,3.811433143935997331e-02,1.389918106909640398e-02,1.311795979153202070e-02,1.191844826690184773e-02
3.504000000000000004e+00,3.800833412913564441e-02,1.381317869205855864e-02,1.308430378280324435e-02,1.185233031458266147e-02
3.504999999999999893e+00,3.790291871070022162e-02,1.373075226533861104e-02,1.305118947764758938e-02,1.178617293134038603e-02
3.505999999999999783e+00,3.779800251500436276e-02,1.365186377763092512e-02,1.301859299111439265e-02,1.172000680509805923e-02
3.507000000000000117e+00,3.769347322677465278e-02,1.357648040406683916e-02,1.298650332711346993e-02,1.165386872103275732e-02
3.508000000000000007e+00,3.758918995441985073e-02,1.350457128354247763e-02,1.295493071479090867e-02,1.158781590736088565e-02
3.508999999999999897e+00,3.748499110448218208e-02,1.343610278445569496e-02,1.292391396814975175e-02,1.152192780279478503e-02
3.509999999999999787e+00,3.738069708125282831e-02,1.337103589082581229e-02,1.289351879158736128e-02,1.145629333336156686e-02
3.511000000000000121e+00,3.727610925437992856e-02,1.330932538984215541e-02,1.286383027917701455e-02,1.139100157682071054e-02
3.512000000000000011e+00,3.717102128519554627e-02,1.325091576737347579e-02,1.283494280763590630e-02,1.132614713110454731e-02
3.512999999999999901e+00,3.706524564184290882e-02,1.319573530760808494e-02,1.280694985250924699e-02,1.126183567702054682e-02
3.513999999999999790e+00,3.695863431541604460e-02,1.314369395753913448e-02,1.277993719132358881e-02,1.119817645330343191e-02
3.515000000000000124e+00,3.685109735339763687e-02,1.309468359169846038e-02,1.275398041801728381e-02,1.113527240413712989e-02
3.516000000000000014e+00,3.674262588369700544e-02,1.304857858703425619e-02,1.272914950985562163e-02,1.107321821878752034e-02
3.516999999999999904e+00,3.663329758313910861e-02,1.300524022536478190e-02,1.270551257560883704e-02,1.101210176639963283e-02
3.517999999999999794e+00,3.652325869993152535e-02,1.296452665300808736e-02,1.268312943124927893e-02,1.095200452252210327e-02
3.519000000000000128e+00,3.641269014602123433e-02,1.292630482554615184e-02,1.266204558065369030e-02,1.089300167414843784e-02
3.520000000000000018e+00,3.630177230147320355e-02,1.289046032435344630e-02,1.264229528066150576e-02,1.083516347177465068e-02
3.520999999999999908e+00,3.619066888230893647e-02,1.285690252796009743e-02,1.262390967718931764e-02,1.077855909146533189e-02
3.521999999999999797e+00,3.607952123589006077e-02,1.282556278913702004e-02,1.260692363772973786e-02,1.072326128455514636e-02
3.523000000000000131e+00,3.596844033880870761e-02,1.279638858611308397e-02,1.259137303136772731e-02,1.066934858772902728e-02
3.524000000000000021e+00,3.585750912719783828e-02,1.276934290141461779e-02,1.257728501269200425e-02,1.061690492853985777e-02
3.524999999999999911e+00,3.574680629731877279e-02,1.274441061853918630e-02,1.256467315357065462e-02,1.056601796939020572e-02
3.525999999999999801e+00,3.563643493819984576e-02,1.272160271705756983e-02,1.255353887793388135e-02,1.051677773427277598e-02
3.527000000000000135e+00,3.552652777550735497e-02,1.270095093786737656e-02,1.254387425279638972e-02,1.046927616449709608e-02
3.528000000000000025e+00,3.541722735581852299e-02,1.268249612803369446e-02,1.253566416185053316e-02,1.042360710354377738e-02
3.528999999999999915e+00,3.530866315156195451e-02,1.266627748598326761e-02,1.252888806579279500e-02,1.037986804160752688e-02
3.529999999999999805e+00,3.520094937935908108e-02,1.265232499075041699e-02,1.252352103910577691e-02,1.033816311776340237e-02
3.531000000000000139e+00,3.509421219813306514e-02,1.264065549947296190e-02,1.251953225283515027e-02,1.029860231698155951e-02
3.532000000000000028e+00,3.498861708217931160e-02,1.263127128237854016e-02,1.251688292374423216e-02,1.026129498219510022e-02
3.532999999999999918e+00,3.488436479597692430e-02,1.262415894763450376e-02,1.251552437981889691e-02,1.022634169425357988e-02
3.533999999999999808e+00,3.478167350757748605e-02,1.261929148912160729e-02,1.251539418147736178e-02,1.019383033417285526e-02
3.535000000000000142e+00,3.468077587336265699e-02,1.261663200359654756e-02,1.251641539469421777e-02,1.016384023926269857e-02
3.536000000000000032e+00,3.458192268587609308e-02,1.261613176666182869e-02,1.251850124057428751e-02,1.013644896009983226e-02
3.536999999999999922e+00,3.448536690088130352e-02,1.261772393834101856e-02,1.252155900714972507e-02,1.011173180017841886e-02
3.537999999999999812e+00,3.439132895806589624e-02,1.262132086506870428e-02,1.252548990724622335e-02,1.008975626957189439e-02
3.539000000000000146e+00,3.429997847699086527e-02,1.262681693895601788e-02,1.253018498001780105e-02,1.007057977400182235e-02
3.540000000000000036e+00,3.421145006781428632e-02,1.263409312448860421e-02,1.253552200608346739e-02,1.005424957948785301e-02
3.540999999999999925e+00,3.412587155725631261e-02,1.264302007597491000e-02,1.254137343350701476e-02,1.004080064317646598e-02
3.541999999999999815e+00,3.404338988888071238e-02,1.265345868914682752e-02,1.254762210011212825e-02,1.003025303865028375e-02
3.543000000000000149e+00,3.396419365964273990e-02,1.266525725266294533e-02,1.255416553640290901e-02,1.002261334931855465e-02
3.544000000000000039e+00,3.388851532238573716e-02,1.267824668328647666e-02,1.256090298410327336e-02,1.001788350115537241e-02
3.544999999999999929e+00,3.381660834838000340e-02,1.269223770446605351e-02,1.256772300455134654e-02,1.001607365696402692e-02
3.545999999999999819e+00,3.374872136496248620e-02,1.270702068796986800e-02,1.257450789915724731e-02,1.001720735954724807e-02
3.547000000000000153e+00,3.368507775632753609e-02,1.272236540370495772e-02,1.258115162382903059e-02,1.002131511098911486e-02
3.548000000000000043e+00,3.362585843192692631e-02,1.273802154682149822e-02,1.258757779460774502e-02,1.002842693442792393e-02
3.548999999999999932e+00,3.357119451394310200e-02,1.275372421535307145e-02,1.259374706715462276e-02,1.003857136516820951e-02
3.549999999999999822e+00,3.352116846176280557e-02,1.276920303618255328e-02,1.259964842435452696e-02,1.005177574167962808e-02
3.551000000000000156e+00,3.347581846567950631e-02,1.278419004341673632e-02,1.260528145578602120e-02,1.006806244460704998e-02
3.552000000000000046e+00,3.343514646166910464e-02,1.279842325898445862e-02,1.261064454127122127e-02,1.008744504280750451e-02
3.552999999999999936e+00,3.339912079830046482e-02,1.281164426960504886e-02,1.261573081521091128e-02,1.010992812318633159e-02
3.553999999999999826e+00,3.336767159480951567e-02,1.282359452863031206e-02,1.262052767800456513e-02,1.013550771550629677e-02
3.555000000000000160e+00,3.334069284550955636e-02,1.283401879906377954e-02,1.262502466906442571e-02,1.016416994852893142e-02
3.556000000000000050e+00,3.331805001676884509e-02,1.284267606812717309e-02,1.262922603112386771e-02,1.019588929595896011e-02
3.556999999999999940e+00,3.329958358343746566e-02,1.284934913155581782e-02,1.263315067540281104e-02,1.023062946008266444e-02
3.557999999999999829e+00,3.328511320039349852e-02,1.285384610848500433e-02,1.263681785773340671e-02,1.026834813227055741e-02
3.559000000000000163e+00,3.327444036025495322e-02,1.285599935790809542e-02,1.264023741059454135e-02,1.030899912461037508e-02
3.560000000000000053e+00,3.326734090989803133e-02,1.285566768305408669e-02,1.264341445336033230e-02,1.035252717119014045e-02
3.560999999999999943e+00,3.326355850004355380e-02,1.285273735960096829e-02,1.264635900286935864e-02,1.039886244531938557e-02
3.561999999999999833e+00,3.326281359521012643e-02,1.284712019994253135e-02,1.264909157974545249e-02,1.044792043657283460e-02
3.563000000000000167e+00,3.326481741090525635e-02,1.283875183735882879e-02,1.265164469382559949e-02,1.049960554320837104e-02
3.564000000000000057e+00,3.326927464823417613e-02,1.282759209488142961e-02,1.265406017947750747e-02,1.055381644317080966e-02
3.564999999999999947e+00,3.327588186322985586e-02,1.281363104291488933e-02,1.265638615884080546e-02,1.061044968870784519e-02
3.565999999999999837e+00,3.328432984425028218e-02,1.279690026035481230e-02,1.265867568051266302e-02,1.066939825651337832e-02
3.567000000000000171e+00,3.329430579481092861e-02,1.277747965130923875e-02,1.266098044789498202e-02,1.073054938527651103e-02
3.568000000000000060e+00,3.330549239802256534e-02,1.275549144752966338e-02,1.266334294996341106e-02,1.079379020471398117e-02
3.568999999999999950e+00,3.331755765140305414e-02,1.273108466313244667e-02,1.266579825185280665e-02,1.085901792291246899e-02
3.569999999999999840e+00,3.333013471315236093e-02,1.270441931718848706e-02,1.266838240475788580e-02,1.092614052851661501e-02
3.571000000000000174e+00,3.334281119626785611e-02,1.267565405423339876e-02,1.267113475680433851e-02,1.099506768430655486e-02
3.572000000000000064e+00,3.335514228478077270e-02,1.264493705139238880e-02,1.267409058836227280e-02,1.106570403424923278e-02
3.572999999999999954e+00,3.336667492658353801e-02,1.261240114229097466e-02,1.267727131351877902e-02,1.113794915577399555e-02
3.573999999999999844e+00,3.337697468342414736e-02,1.257816278639798183e-02,1.268067816469094916e-02,1.121170051123826505e-02
3.575000000000000178e+00,3.338566998728607904e-02,1.254232229877274424e-02,1.268429045759755618e-02,1.128685356664909864e-02
3.576000000000000068e+00,3.339249839381414064e-02,1.250496359357972792e-02,1.268806851536096077e-02,1.136329720949856917e-02
3.576999999999999957e+00,3.339730777682509144e-02,1.246615513947653062e-02,1.269195804822417263e-02,1.144090927250956610e-02
3.577999999999999847e+00,3.340001181077732750e-02,1.242595186303197159e-02,1.269589038500284518e-02,1.151955562810659701e-02
3.579000000000000181e+00,3.340053709771637069e-02,1.238439405773406055e-02,1.269977879580681465e-02,1.159909383696028883e-02
3.580000000000000071e+00,3.339878918385986301e-02,1.234150477093939532e-02,1.270351838281770680e-02,1.167937979573943630e-02
3.580999999999999961e+00,3.339466082889059467e-02,1.229729281449193010e-02,1.270699555524005403e-02,1.176027163213098567e-02
3.581999999999999851e+00,3.338807577165217588e-02,1.225176226065012586e-02,1.271010172418846583e-02,1.184162774156804696e-02
3.583000000000000185e+00,3.337902341897572983e-02,1.220492041651871293e-02,1.271274180185287192e-02,1.192330130217774536e-02
3.584000000000000075e+00,3.336755988632308240e-02,1.215677969330444114e-02,1.271483807362466453e-02,1.200513671693645770e-02
3.584999999999999964e+00,3.335378543791484712e-02,1.210735490433551172e-02,1.271633121122696906e-02,1.208697156604041784e-02
3.585999999999999854e+00,3.333782437346936856e-02,1.205665742148913019e-02,1.271717813966029287e-02,1.216863875738714851e-02
3.587000000000000188e+00,3.331982645159143469e-02,1.200469025339317639e-02,1.271734967262939595e-02,1.224996478318629220e-02
3.588000000000000078e+00,3.329997337977818467e-02,1.195144858388821202e-02,1.271682477295689451e-02,1.233076903453194165e-02
3.588999999999999968e+00,3.327846454741961030e-02,1.189692536954440293e-02,1.271557835263498540e-02,1.241086808694335034e-02
3.589999999999999858e+00,3.325548956441784498e-02,1.184111878574039926e-02,1.271356984579212306e-02,1.249008610138909250e-02
3.591000000000000192e+00,3.323121153799313970e-02,1.178403693045094146e-02,1.271073955758447900e-02,1.256826559586690130e-02
3.592000000000000082e+00,3.320576569616528334e-02,1.172569843907749279e-02,1.270701438201928338e-02,1.264526573924920107e-02
3.592999999999999972e+00,3.317926514501498558e-02,1.166613410416336011e-02,1.270231934901632463e-02,1.272094896550890475e-02
3.593999999999999861e+00,3.315180624657901309e-02,1.160539222573560639e-02,1.269658376397070354e-02,1.279516830852268396e-02
3.595000000000000195e+00,3.312346429905266287e-02,1.154354115508939363e-02,1.268973435977673730e-02,1.286775947262103377e-02
3.596000000000000085e+00,3.309428388745395272e-02,1.148066495194323237e-02,1.268168443073559512e-02,1.293854000710862456e-02
3.596999999999999975e+00,3.306427906597501909e-02,1.141685907200459815e-02,1.267233546542159695e-02,1.300732075882689125e-02
3.597999999999999865e+00,3.303344680481466039e-02,1.135222886091918904e-02,1.266159380593253822e-02,1.307391929078562456e-02
3.599000000000000199e+00,3.300178783914423791e-02,1.128688516273759768e-02,1.264938326654827666e-02,1.313815738463072064e-02
3.600000000000000089e+00,3.296931896209807228e-02,1.122093560686321899e-02,1.263563823799557055e-02,1.319985075346117621e-02
3.600999999999999979e+00,3.293606075686845991e-02,1.115447536681536331e-02,1.262029166415002540e-02,1.325881411355082050e-02
3.601999999999999869e+00,3.290201808228955527e-02,1.108758189853770518e-02,1.260327859772813336e-02,1.331487942201943150e-02
3.603000000000000203e+00,3.286718437487904515e-02,1.102031677095598010e-02,1.258454711967155019e-02,1.336790831658733227e-02
3.604000000000000092e+00,3.283156014651627402e-02,1.095273312469412230e-02,1.256405871840592103e-02,1.341779409826977104e-02
3.604999999999999982e+00,3.279516899539743763e-02,1.088488304580472084e-02,1.254178413865161476e-02,1.346446015861810230e-02
3.605999999999999872e+00,3.275808978503082919e-02,1.081682116126164717e-02,1.251770760184402372e-02,1.350785825562966606e-02
3.607000000000000206e+00,3.272049441335574127e-02,1.074860395013651528e-02,1.249183504544157733e-02,1.354796511302697182e-02
3.608000000000000096e+00,3.268265390301471063e-02,1.068028505443565333e-02,1.246420024676633646e-02,1.358477917566943555e-02
3.608999999999999986e+00,3.264491508021077903e-02,1.061190969796116206e-02,1.243486913222934843e-02,1.361831766407452585e-02
3.609999999999999876e+00,3.260766244547468745e-02,1.054351178179572905e-02,1.240393820646003807e-02,1.364860696213456535e-02
3.611000000000000210e+00,3.257127988460963020e-02,1.047511471087639486e-02,1.237152247791721039e-02,1.367567152765469633e-02
3.612000000000000099e+00,3.253613325851369142e-02,1.040673365510344679e-02,1.233773793427473363e-02,1.369953203540897994e-02
3.612999999999999989e+00,3.250256930951202911e-02,1.033837665246523790e-02,1.230269277706105488e-02,1.372020422132629557e-02
3.613999999999999879e+00,3.247091930053927489e-02,1.027004791280105266e-02,1.226649581599819315e-02,1.373769184051178843e-02
3.615000000000000213e+00,3.244150862175290695e-02,1.020175470896524279e-02,1.222927350087454727e-02,1.375198383768583277e-02
3.616000000000000103e+00,3.241465952302752945e-02,1.013351129015060623e-02,1.219117888738708091e-02,1.376305938873756060e-02
3.616999999999999993e+00,3.239068011679609171e-02,1.006533769402504462e-02,1.215238334283993103e-02,1.377089885645749537e-02
3.617999999999999883e+00,3.236985942137002303e-02,9.997259387876560391e-03,1.211305946880773289e-02,1.377550189816169682e-02
3.619000000000000217e+00,3.235247019337932073e-02,9.929311076169273706e-03,1.207337037546688148e-02,1.377690737422469433e-02
3.620000000000000107e+00,3.233876535760609600e-02,9.861540550274661143e-03,1.203346752861227109e-02,1.377520654044319184e-02
3.620999999999999996e+00,3.232897054205999265e-02,9.794005570351049100e-03,1.199349026348238596e-02,1.377054582382880761e-02
3.621999999999999886e+00,3.232327881118260415e-02,9.726766072576451330e-03,1.195356425421565012e-02,1.376311677204088146e-02
3.623000000000000220e+00,3.232185080035736985e-02,9.659882736574636197e-03,1.191380213253278794e-02,1.375313291710441102e-02
3.624000000000000110e+00,3.232481663733750149e-02,9.593422480448499448e-03,1.187430758943435263e-02,1.374080592900308283e-02
3.625000000000000000e+00,3.233226904916150501e-02,9.527460374962663098e-03,1.183517853837819968e-02,1.372633645945627208e-02
3.625999999999999890e+00,3.234425522346789234e-02,9.462073438634022865e-03,1.179650522666600594e-02,1.370991539006726108e-02
3.626999999999999780e+00,3.236078383616312892e-02,9.397332262123563734e-03,1.175836458973122771e-02,1.369172324883097952e-02
3.628000000000000114e+00,3.238183626251165542e-02,9.333297172522221283e-03,1.172081640452892100e-02,1.367192575223983610e-02
3.629000000000000004e+00,3.240736411556685570e-02,9.270017901670798977e-03,1.168390581193566938e-02,1.365067046600418159e-02
3.629999999999999893e+00,3.243728236141980165e-02,9.207533929397111738e-03,1.164767296664731555e-02,1.362809163095075188e-02
3.630999999999999783e+00,3.247147085050140075e-02,9.145876451435806104e-03,1.161216515900458275e-02,1.360432035813289448e-02
3.632000000000000117e+00,3.250978457107712299e-02,9.085069846689794101e-03,1.157744042398906395e-02,1.357948879426132058e-02
3.633000000000000007e+00,3.255207213400915234e-02,9.025128929092443922e-03,1.154355952810788392e-02,1.355372731359552954e-02
3.633999999999999897e+00,3.259818790893023038e-02,8.966055107409266062e-03,1.151057792290852665e-02,1.352716184443513922e-02
3.634999999999999787e+00,3.264797843912147640e-02,8.907836323433828904e-03,1.147854431250553559e-02,1.349991143942243926e-02
3.636000000000000121e+00,3.270126168974779590e-02,8.850449816386945709e-03,1.144750183089563583e-02,1.347208397644337335e-02
3.637000000000000011e+00,3.275782645442988639e-02,8.793865074161546364e-03,1.141748781837928148e-02,1.344377677628248030e-02
3.637999999999999901e+00,3.281743788839650705e-02,8.738048912011457670e-03,1.138853117077084573e-02,1.341508540033651241e-02
3.638999999999999790e+00,3.287983394710513457e-02,8.682976002409189403e-03,1.136064967366787019e-02,1.338610997379541256e-02
3.640000000000000124e+00,3.294472565810217801e-02,8.628641454935819313e-03,1.133384947178323575e-02,1.335695151506466338e-02
3.641000000000000014e+00,3.301180048758825536e-02,8.575066089945905870e-03,1.130812825066297884e-02,1.332770373671841001e-02
3.641999999999999904e+00,3.308071621008281532e-02,8.522290060764587880e-03,1.128348179123325919e-02,1.329844820345501416e-02
3.642999999999999794e+00,3.315109287943019539e-02,8.470361984502312175e-03,1.125990605486483151e-02,1.326925540449218691e-02
3.644000000000000128e+00,3.322251408280404300e-02,8.419331744036416196e-03,1.123739225669240401e-02,1.324018762764925250e-02
3.645000000000000018e+00,3.329454491323765447e-02,8.369246148109622113e-03,1.121592372276187730e-02,1.321129704735151365e-02
3.645999999999999908e+00,3.336677405743067315e-02,8.320146194786321239e-03,1.119547604029970042e-02,1.318261968009521758e-02
3.646999999999999797e+00,3.343886949951056786e-02,8.272067905981093233e-03,1.117601585991545229e-02,1.315417151767482758e-02
3.648000000000000131e+00,3.351062734819260786e-02,8.225043826640819622e-03,1.115750068761688779e-02,1.312595107163122554e-02
3.649000000000000021e+00,3.358199468384660130e-02,8.179101834340278543e-03,1.113987966240198579e-02,1.309794937512958821e-02
3.649999999999999911e+00,3.365305446245218240e-02,8.134264933023591104e-03,1.112309124017420159e-02,1.307016275518074234e-02
3.650999999999999801e+00,3.372398495434478227e-02,8.090554721678983735e-03,1.110706001612572075e-02,1.304260026048833371e-02
3.652000000000000135e+00,3.379501030943769802e-02,8.047993812003389688e-03,1.109169668785266183e-02,1.301528193354913390e-02
3.653000000000000025e+00,3.386635355260513014e-02,8.006602504098143253e-03,1.107690597074421739e-02,1.298823165026566882e-02
3.653999999999999915e+00,3.393821427609822888e-02,7.966393892454598502e-03,1.106260832258081257e-02,1.296147194709961967e-02
3.654999999999999805e+00,3.401077567834705911e-02,7.927375335476986862e-03,1.104876349640381700e-02,1.293502037878160871e-02
3.656000000000000139e+00,3.408421577766045096e-02,7.889553475027800619e-03,1.103537129890164344e-02,1.290888413937255064e-02
3.657000000000000028e+00,3.415870827336433407e-02,7.852935009676487166e-03,1.102245201788259847e-02,1.288305798817483173e-02
3.657999999999999918e+00,3.423441678763203960e-02,7.817525946068128867e-03,1.101003323008725200e-02,1.285752545085450810e-02
3.658999999999999808e+00,3.431148231444116486e-02,7.783333286864502557e-03,1.099814863439646517e-02,1.283225804931174135e-02
3.660000000000000142e+00,3.439001121479453443e-02,7.750365809027379323e-03,1.098683577634687603e-02,1.280721467802196228e-02
3.661000000000000032e+00,3.447007475243712982e-02,7.718632633158336968e-03,1.097613302681304560e-02,1.278234469425056953e-02
3.661999999999999922e+00,3.455171335101960700e-02,7.688141414345140562e-03,1.096608013934594929e-02,1.275760021911484347e-02
3.662999999999999812e+00,3.463494036683541222e-02,7.658895811991269127e-03,1.095671701424318252e-02,1.273295984308930699e-02
3.664000000000000146e+00,3.471974881262089585e-02,7.630892704065020925e-03,1.094807820647080224e-02,1.270844761041929789e-02
3.665000000000000036e+00,3.480611423973659774e-02,7.604121528944324249e-03,1.094018805046279713e-02,1.268413027110544544e-02
3.665999999999999925e+00,3.489398855062500471e-02,7.578565719303059604e-03,1.093306022622439651e-02,1.266009548546638726e-02
3.666999999999999815e+00,3.498329046650714563e-02,7.554204724926410694e-03,1.092669919009606541e-02,1.263642808422822672e-02
3.668000000000000149e+00,3.507389590528119105e-02,7.531014432151921824e-03,1.092110153755845164e-02,1.261320228368056386e-02
3.669000000000000039e+00,3.516563695688915830e-02,7.508965136780281803e-03,1.091626040039478558e-02,1.259048809765308564e-02
3.669999999999999929e+00,3.525831705759838869e-02,7.488021498449647095e-03,1.091216984474930977e-02,1.256835367224248649e-02
3.670999999999999819e+00,3.535172578256929460e-02,7.468146166922138597e-03,1.090882321696922362e-02,1.254685940233967942e-02
3.672000000000000153e+00,3.544564237591778244e-02,7.449301937707280066e-03,1.090621012613414258e-02,1.252605363305037134e-02
3.673000000000000043e+00,3.553984169513639546e-02,7.431451200805548780e-03,1.090431743357394949e-02,1.250597169459789250e-02
3.673999999999999932e+00,3.563410734354261616e-02,7.414558958440463192e-03,1.090313033591716087e-02,1.248663500586164217e-02
3.674999999999999822e+00,3.572824696546352680e-02,7.398600558940096432e-03,1.090262974990331701e-02,1.246805045215312185e-02
3.676000000000000156e+00,3.582210708178130976e-02,7.383564687893978337e-03,1.090278737529247477e-02,1.245021392181790837e-02
3.677000000000000046e+00,3.591557406826491328e-02,7.369447602878126218e-03,1.090356229506660168e-02,1.243312031718370007e-02
3.677999999999999936e+00,3.600855460369403738e-02,7.356245911179819935e-03,1.090490074833952092e-02,1.241676920136203927e-02
3.678999999999999826e+00,3.610096053574003705e-02,7.343952453721463991e-03,1.090673752002410332e-02,1.240115936044892779e-02
3.680000000000000160e+00,3.619272090291644067e-02,7.332554904610886874e-03,1.090899891189961446e-02,1.238628601845055341e-02
3.681000000000000050e+00,3.628380750651295783e-02,7.322036959668100711e-03,1.091160611857087265e-02,1.237214581832333377e-02
3.681999999999999940e+00,3.637424572384471977e-02,7.312380107010677498e-03,1.091447384872336335e-02,1.235873851572800303e-02
3.682999999999999829e+00,3.646409200912364978e-02,7.303564001285935137e-03,1.091750444200988157e-02,1.234606399008370860e-02
3.684000000000000163e+00,3.655338803498698469e-02,7.295565836497547828e-03,1.092058722110409406e-02,1.233411968044312128e-02
3.685000000000000053e+00,3.664213079860947908e-02,7.288359489934173423e-03,1.092360853907095586e-02,1.232289971665474423e-02
3.685999999999999943e+00,3.673027471811016881e-02,7.281914728062464925e-03,1.092646498320905615e-02,1.231239892008600262e-02
3.686999999999999833e+00,3.681774296945662661e-02,7.276196685528935233e-03,1.092907156177296002e-02,1.230262180785411316e-02
3.688000000000000167e+00,3.690444091742734606e-02,7.271166270521138390e-03,1.093136317474499054e-02,1.229358899574168641e-02
3.689000000000000057e+00,3.699028054285286721e-02,7.266779524969436098e-03,1.093328701962837171e-02,1.228533311041566344e-02
3.689999999999999947e+00,3.707519960414069199e-02,7.262985451454467140e-03,1.093478956793115901e-02,1.227788499401386707e-02
3.690999999999999837e+00,3.715916642364964356e-02,7.259727219144539861e-03,1.093581122303238611e-02,1.227126455227484265e-02
3.692000000000000171e+00,3.724218911839064644e-02,7.256944747869552292e-03,1.093629404879929191e-02,1.226548949682801891e-02
3.693000000000000060e+00,3.732433259095493949e-02,7.254572286939948295e-03,1.093619500198402504e-02,1.226059200476182359e-02
3.693999999999999950e+00,3.740572749418511617e-02,7.252534893477591976e-03,1.093549260974076114e-02,1.225662235706740169e-02
3.694999999999999840e+00,3.748655757314598574e-02,7.250748984427696914e-03,1.093418239469108252e-02,1.225363921730125184e-02
3.696000000000000174e+00,3.756703170118252944e-02,7.249125630780829839e-03,1.093227009631342860e-02,1.225170150395438889e-02
3.697000000000000064e+00,3.764736979777887765e-02,7.247579009929778007e-03,1.092977125070132734e-02,1.225086478516147249e-02
3.697999999999999954e+00,3.772781126115404282e-02,7.246040459983691361e-03,1.092671647985089291e-02,1.225117627470938796e-02
3.698999999999999844e+00,3.780862565181278279e-02,7.244467331718891165e-03,1.092315803705754505e-02,1.225266998158261282e-02
3.700000000000000178e+00,3.789011477622242219e-02,7.242841260819993937e-03,1.091917258108599485e-02,1.225536660244585900e-02
3.701000000000000068e+00,3.797260024174351628e-02,7.241163226187484654e-03,1.091485606032246460e-02,1.225927775344034902e-02
3.701999999999999957e+00,3.805639593336919424e-02,7.239450941113987660e-03,1.091031205603718718e-02,1.226440953939804748e-02
3.702999999999999847e+00,3.814178879686409840e-02,7.237737148057722496e-03,1.090564406771057232e-02,1.227076046936386063e-02
3.704000000000000181e+00,3.822903928276549790e-02,7.236065177857875855e-03,1.090095522389653536e-02,1.227831578390055876e-02
3.705000000000000071e+00,3.831838844847754166e-02,7.234481300223414776e-03,1.089634538259168749e-02,1.228704458617241833e-02
3.705999999999999961e+00,3.841005938539631542e-02,7.233028082337524672e-03,1.089190618241744034e-02,1.229690280312275945e-02
3.706999999999999851e+00,3.850424295874927544e-02,7.231742128507750653e-03,1.088772548348205561e-02,1.230783986818320339e-02
3.708000000000000185e+00,3.860107967698707399e-02,7.230655622063144813e-03,1.088389830965330422e-02,1.231980329605452187e-02
3.709000000000000075e+00,3.870066281706262962e-02,7.229798230878302541e-03,1.088053366666232383e-02,1.233273758581513758e-02
3.709999999999999964e+00,3.880305408904429626e-02,7.229196147577289164e-03,1.087775772315381119e-02,1.234657964217322421e-02
3.710999999999999854e+00,3.890828558961761940e-02,7.228870164029567794e-03,1.087571222812031869e-02,1.236125549667287278e-02
3.712000000000000188e+00,3.901635174106910658e-02,7.228835420868521752e-03,1.087454333223127761e-02,1.237668279011465769e-02
3.713000000000000078e+00,3.912721169889481904e-02,7.229100933853238251e-03,1.087438848811202868e-02,1.239277787584310703e-02
3.713999999999999968e+00,3.924080079342245897e-02,7.229668346017059481e-03,1.087537039634017128e-02,1.240946027300334105e-02
3.714999999999999858e+00,3.935703722209140526e-02,7.230531183989158221e-03,1.087759692617413891e-02,1.242665151086748757e-02
3.716000000000000192e+00,3.947581837557388729e-02,7.231674445892243702e-03,1.088116394626097161e-02,1.244427187505196646e-02
3.717000000000000082e+00,3.959700926956354061e-02,7.233077334464471826e-03,1.088615744012755467e-02,1.246223810561667041e-02
3.717999999999999972e+00,3.972043616105352254e-02,7.234721785617409182e-03,1.089265185557667867e-02,1.248046337772299938e-02
3.718999999999999861e+00,3.984588954801389360e-02,7.236599668766053629e-03,1.090070760026379607e-02,1.249885859832453906e-02
3.720000000000000195e+00,3.997312301246293276e-02,7.238710887126006965e-03,1.091037192817956823e-02,1.251733352916415201e-02
3.721000000000000085e+00,4.010184438794240497e-02,7.241056724265146176e-03,1.092168189968292444e-02,1.253579720826904914e-02
3.721999999999999975e+00,4.023171258091731012e-02,7.243635342478314809e-03,1.093466701432225206e-02,1.255415516168530317e-02
3.722999999999999865e+00,4.036235475155057484e-02,7.246441174405650679e-03,1.094935136276256084e-02,1.257230674412238708e-02
3.724000000000000199e+00,4.049340185294719729e-02,7.249467954835206451e-03,1.096575299230212637e-02,1.259015372934352631e-02
3.725000000000000089e+00,4.062451475128063538e-02,7.252711014477847100e-03,1.098387967758989413e-02,1.260761554466449316e-02
3.725999999999999979e+00,4.075538205222717369e-02,7.256164925478491429e-03,1.100372575456940068e-02,1.262463037702621707e-02
3.726999999999999869e+00,4.088570553645942685e-02,7.259820959043919095e-03,1.102527276766534711e-02,1.264114259359930270e-02
3.728000000000000203e+00,4.101518520735458750e-02,7.263668531707831444e-03,1.104849143089266586e-02,1.265709415688057518e-02
3.729000000000000092e+00,4.114350271969791778e-02,7.267696469582326721e-03,1.107334417317445974e-02,1.267242265826729747e-02
3.729999999999999982e+00,4.127032478805607585e-02,7.271890015394048487e-03,1.109978928486233911e-02,1.268706423538244407e-02
3.730999999999999872e+00,4.139534194235768710e-02,7.276226959472862493e-03,1.112778147184232888e-02,1.270096473762186151e-02
3.732000000000000206e+00,4.151830922771031912e-02,7.280677895342774902e-03,1.115726673426563516e-02,1.271409430907865200e-02
3.733000000000000096e+00,4.163905058513170387e-02,7.285209809232686892e-03,1.118818205339584815e-02,1.272645218413007498e-02
3.733999999999999986e+00,4.175742403732746189e-02,7.289790229115595405e-03,1.122046444371536597e-02,1.273805497780573608e-02
3.734999999999999876e+00,4.187327380487743111e-02,7.294390380230169821e-03,1.125405786459106675e-02,1.274891995435656171e-02
3.736000000000000210e+00,4.198641550148703161e-02,7.298985948923884803e-03,1.128891006488296107e-02,1.275905607087952226e-02
3.737000000000000099e+00,4.209666682926422460e-02,7.303559208420629112e-03,1.132496517515288979e-02,1.276846051360975079e-02
3.737999999999999989e+00,4.220387623787709430e-02,7.308104824072834439e-03,1.136215937894208966e-02,1.277711623143229502e-02
3.738999999999999879e+00,4.230791822415343878e-02,7.312631496912120818e-03,1.140042121139686788e-02,1.278499082887718866e-02
3.740000000000000213e+00,4.240867301152042440e-02,7.317155187967609026e-03,1.143967660998439911e-02,1.279203723757597368e-02
3.741000000000000103e+00,4.250602243115339518e-02,7.321689958615863920e-03,1.147985794334696434e-02,1.279819580780584137e-02
3.741999999999999993e+00,4.259988013756379338e-02,7.326242341519221928e-03,1.152090823105737967e-02,1.280339687846332800e-02
3.742999999999999883e+00,4.269023119365454588e-02,7.330811312873607676e-03,1.156277397420875201e-02,1.280756604643653283e-02
3.744000000000000217e+00,4.277714321123000235e-02,7.335393263026357587e-03,1.160540086171856812e-02,1.281063655581650591e-02
3.745000000000000107e+00,4.286074063697747905e-02,7.339988021392164497e-03,1.164874682166491468e-02,1.281256685367356506e-02
3.745999999999999996e+00,4.294115693318868721e-02,7.344600257768972573e-03,1.169279856863353860e-02,1.281335237127550347e-02
3.746999999999999886e+00,4.301850149262010509e-02,7.349234627700756452e-03,1.173757198114030662e-02,1.281301861478513840e-02
3.748000000000000220e+00,4.309286556637063198e-02,7.353889790770478350e-03,1.178310050201850437e-02,1.281159939221176644e-02
3.749000000000000110e+00,4.316435024444109647e-02,7.358557119153613137e-03,1.182942463464554429e-02,1.280912093286958736e-02
3.750000000000000000e+00,4.323308943478758326e-02,7.363223272050935068e-03,1.187658457181097436e-02,1.280559905491625815e-02
3.750999999999999890e+00,4.329925007101576712e-02,7.367870996562095320e-03,1.192461376102328489e-02,1.280103848516075948e-02
3.751999999999999780e+00,4.336301364269957298e-02,7.372476416741746350e-03,1.197353591209499718e-02,1.279543022022167943e-02
3.753000000000000114e+00,4.342456214111073409e-02,7.377005810484876108e-03,1.202336730766244074e-02,1.278875308156466467e-02
3.754000000000000004e+00,4.348406435115835522e-02,7.381414601032827878e-03,1.207411935810621083e-02,1.278098105284680534e-02
3.754999999999999893e+00,4.354164684346812503e-02,7.385650342295560500e-03,1.212579713331784353e-02,1.277209297112939096e-02
3.755999999999999783e+00,4.359737125146982695e-02,7.389657379708182428e-03,1.217839706251493126e-02,1.276208116328835830e-02
3.757000000000000117e+00,4.365123853568309009e-02,7.393377610297808405e-03,1.223190782326400751e-02,1.275095295241298644e-02
3.758000000000000007e+00,4.370320432108877606e-02,7.396749050966704153e-03,1.228631556218507705e-02,1.273872632927335394e-02
3.758999999999999897e+00,4.375319043006238584e-02,7.399709803963153837e-03,1.234161267320563193e-02,1.272542745883761817e-02
3.759999999999999787e+00,4.380109525278794158e-02,7.402207627743307913e-03,1.239780357903442869e-02,1.271108729982393590e-02
3.761000000000000121e+00,4.384679704714669612e-02,7.404205543022279561e-03,1.245489982257208007e-02,1.269573775503967002e-02
3.762000000000000011e+00,4.389014950763492351e-02,7.405676173059840689e-03,1.251290896041818389e-02,1.267941576286953607e-02
3.762999999999999901e+00,4.393099287501090605e-02,7.406592301147829800e-03,1.257182739613419038e-02,1.266216879371598152e-02
3.763999999999999790e+00,4.396918566203023016e-02,7.406927893991697293e-03,1.263163809729712234e-02,1.264404880999009904e-02
3.765000000000000124e+00,4.400462753877087269e-02,7.406668855692044064e-03,1.269230974075526500e-02,1.262509919330592235e-02
3.766000000000000014e+00,4.403725317637242204e-02,7.405818921271138146e-03,1.275379721691704757e-02,1.260534666511686080e-02
3.766999999999999904e+00,4.406700226797751613e-02,7.404395140847500577e-03,1.281604489197493875e-02,1.258480112264316261e-02
3.767999999999999794e+00,4.409378598439771257e-02,7.402422431069564240e-03,1.287899219316609827e-02,1.256346151097920312e-02
3.769000000000000128e+00,4.411747693093354822e-02,7.399933671042048348e-03,1.294257734607482183e-02,1.254132255479057170e-02
3.770000000000000018e+00,4.413792706999853516e-02,7.396969246902878985e-03,1.300673465909160664e-02,1.251837508112815106e-02
3.770999999999999908e+00,4.415499364761860113e-02,7.393570302771597207e-03,1.307139052193686049e-02,1.249460174979234207e-02
3.771999999999999797e+00,4.416855627691780584e-02,7.389772841083981289e-03,1.313646772962812938e-02,1.246997969488223418e-02
3.773000000000000131e+00,4.417850651642513810e-02,7.385613609280219233e-03,1.320189453239116982e-02,1.244449380381563650e-02
3.774000000000000021e+00,4.418471598660819732e-02,7.381142934657933773e-03,1.326760875423775403e-02,1.241814679664150420e-02
3.774999999999999911e+00,4.418703507949459791e-02,7.376428296278921513e-03,1.333355579214656923e-02,1.239095735526454800e-02
3.775999999999999801e+00,4.418533500805339048e-02,7.371545108874818196e-03,1.339968441793635591e-02,1.236295685440302189e-02
3.777000000000000135e+00,4.417954631742641858e-02,7.366565345431654900e-03,1.346594194647574190e-02,1.233419180517388372e-02
3.778000000000000025e+00,4.416967184136336849e-02,7.361551146754473189e-03,1.353226820135587649e-02,1.230472700677702480e-02
3.778999999999999915e+00,4.415577568916588536e-02,7.356553882634215766e-03,1.359859425982250583e-02,1.227464376668361418e-02
3.779999999999999805e+00,4.413795424003453399e-02,7.351617666538970246e-03,1.366485354850804565e-02,1.224402970137047561e-02
3.781000000000000139e+00,4.411630939881761720e-02,7.346782167849886386e-03,1.373099801194912865e-02,1.221296683934870037e-02
3.782000000000000028e+00,4.409092791736463068e-02,7.342080023748817977e-03,1.379700359391817371e-02,1.218153198377712639e-02
3.782999999999999918e+00,4.406186513484841583e-02,7.337533262936117573e-03,1.386286046260065859e-02,1.214980599410391687e-02
3.783999999999999808e+00,4.402913896240250730e-02,7.333154956691328302e-03,1.392855657566235278e-02,1.211787713335535539e-02
3.785000000000000142e+00,4.399272224773414369e-02,7.328955096445023687e-03,1.399406721022116232e-02,1.208583865748084213e-02
3.786000000000000032e+00,4.395253528988312536e-02,7.324944543492500904e-03,1.405935823989016252e-02,1.205378771047396422e-02
3.786999999999999922e+00,4.390846108100735640e-02,7.321134420488895414e-03,1.412439571388465764e-02,1.202182253507839103e-02
3.787999999999999812e+00,4.386037181667597207e-02,7.317535309732688294e-03,1.418914840438277418e-02,1.199003487355220811e-02
3.789000000000000146e+00,4.380814259433431918e-02,7.314158803291598461e-03,1.425358409945431427e-02,1.195850434138093742e-02
3.790000000000000036e+00,4.375165915730008098e-02,7.311018983644001178e-03,1.431766513261534431e-02,1.192729967945869995e-02
3.790999999999999925e+00,4.369083167380832106e-02,7.308132181672109817e-03,1.438134154588487958e-02,1.189648149421847038e-02
3.791999999999999815e+00,4.362561467257394798e-02,7.305515016814726099e-03,1.444454445475671506e-02,1.186610472138491419e-02
3.793000000000000149e+00,4.355601782525438809e-02,7.303182489493065949e-03,1.450718634311388110e-02,1.183622424121535781e-02
3.794000000000000039e+00,4.348208799277451797e-02,7.301148744485386026e-03,1.456916818716238321e-02,1.180689718771486645e-02
3.794999999999999929e+00,4.340387053940939627e-02,7.299428240156144269e-03,1.463038991029511765e-02,1.177817783741232603e-02
3.795999999999999819e+00,4.332137649623735154e-02,7.298033699710335456e-03,1.469076024774435864e-02,1.175011445043077155e-02
3.797000000000000153e+00,4.323457652281888913e-02,7.296975020918246117e-03,1.475019781268352599e-02,1.172275025388853746e-02
3.798000000000000043e+00,4.314342859316019213e-02,7.296263694422339824e-03,1.480862069785823278e-02,1.169612287564459480e-02
3.798999999999999932e+00,4.304791990503696597e-02,7.295916281385686833e-03,1.486593512056779906e-02,1.167026289692829101e-02
3.799999999999999822e+00,4.294808934012701168e-02,7.295950054196582817e-03,1.492203314614141615e-02,1.164519272608927417e-02
3.801000000000000156e+00,4.284401639647002213e-02,7.296375427749903983e-03,1.497679888919874538e-02,1.162092778067090257e-02
3.802000000000000046e+00,4.273578717997520565e-02,7.297192178692670124e-03,1.503011479339515927e-02,1.159748284037486789e-02
3.802999999999999936e+00,4.262346221709169963e-02,7.298391439958622912e-03,1.508186181230096803e-02,1.157487717683393889e-02
3.803999999999999826e+00,4.250706356030218430e-02,7.299961147754831584e-03,1.513191688819679956e-02,1.155313152278822017e-02
3.805000000000000160e+00,4.238657855628587962e-02,7.301889971575078846e-03,1.518015109238001620e-02,1.153226201968127716e-02
3.806000000000000050e+00,4.226198182179152774e-02,7.304170133913168335e-03,1.522643041874276182e-02,1.151228266231432013e-02
3.806999999999999940e+00,4.213327666907841496e-02,7.306801442630047119e-03,1.527062094899056012e-02,1.149322211423849452e-02
3.807999999999999829e+00,4.200053698852016654e-02,7.309791997414486452e-03,1.531258996971938610e-02,1.147514425830129664e-02
3.809000000000000163e+00,4.186393186740742373e-02,7.313152981026507272e-03,1.535220129846427695e-02,1.145815223862922845e-02
3.810000000000000053e+00,4.172372000866595571e-02,7.316891671145041298e-03,1.538931497315566138e-02,1.144237044180266769e-02
3.810999999999999943e+00,4.158020626151030102e-02,7.321007783134683006e-03,1.542378682332647480e-02,1.142792049887460942e-02
3.811999999999999833e+00,4.143368863167770644e-02,7.325496327292114335e-03,1.545546119095242421e-02,1.141490951919348247e-02
3.813000000000000167e+00,4.128442951530109789e-02,7.330353174599792479e-03,1.548416983613404296e-02,1.140343180328820712e-02
3.814000000000000057e+00,4.113264991063783627e-02,7.335574990320264249e-03,1.550974892377245985e-02,1.139357363257782058e-02
3.814999999999999947e+00,4.097854166506830625e-02,7.341153121472930240e-03,1.553206215510697166e-02,1.138541584076439503e-02
3.815999999999999837e+00,4.082229353160984897e-02,7.347069295363980145e-03,1.555100795706013984e-02,1.137903402341449918e-02
3.817000000000000171e+00,4.066411020422442540e-02,7.353298013621308374e-03,1.556651148903537285e-02,1.137449702175442542e-02
3.818000000000000060e+00,4.050421546729891104e-02,7.359814146709711333e-03,1.557851908334519260e-02,1.137186631965531915e-02
3.818999999999999950e+00,4.034284529990093959e-02,7.366602908493166853e-03,1.558699799998779570e-02,1.137119565786873752e-02
3.819999999999999840e+00,4.018022487520982178e-02,7.373668961247546727e-03,1.559193161547019202e-02,1.137252953744726305e-02
3.821000000000000174e+00,4.001653752398066921e-02,7.381038942747907006e-03,1.559330643806297774e-02,1.137590266268835928e-02
3.822000000000000064e+00,3.985191973216344746e-02,7.388754726806991309e-03,1.559109983504698878e-02,1.138133980976573090e-02
3.822999999999999954e+00,3.968649104804379546e-02,7.396862556227077126e-03,1.558527687044828670e-02,1.138885597857260644e-02
3.823999999999999844e+00,3.952039220308917883e-02,7.405404651496630929e-03,1.557579639903010349e-02,1.139845895117906106e-02
3.825000000000000178e+00,3.935380617492000022e-02,7.414415233332248209e-03,1.556262628481684673e-02,1.141015237445952221e-02
3.826000000000000068e+00,3.918694788413361330e-02,7.423919424290419816e-03,1.554575834460625999e-02,1.142393513498008578e-02
3.826999999999999957e+00,3.902002674662563564e-02,7.433932805126323116e-03,1.552521052858013215e-02,1.143979771988140604e-02
3.827999999999999847e+00,3.885321229224813350e-02,7.444460905594375497e-03,1.550102355606506124e-02,1.145771974582275761e-02
3.829000000000000181e+00,3.868662282872899899e-02,7.455499783697906030e-03,1.547326038272019144e-02,1.147767010646482018e-02
3.830000000000000071e+00,3.852032478383403402e-02,7.467038459992212350e-03,1.544200533341795641e-02,1.149960924199366040e-02
3.830999999999999961e+00,3.835432727239941608e-02,7.479063466011732879e-03,1.540736142303701130e-02,1.152349139660487423e-02
3.831999999999999851e+00,3.818857819634817463e-02,7.491565114573582769e-03,1.536944374412436976e-02,1.154926377784281505e-02
3.833000000000000185e+00,3.802297546962402769e-02,7.504540942869871237e-03,1.532837187009218269e-02,1.157686422702539943e-02
3.834000000000000075e+00,3.785738312402898292e-02,7.517992044099860299e-03,1.528427035395297021e-02,1.160621992792932114e-02
3.834999999999999964e+00,3.769163313449577779e-02,7.531915709878569259e-03,1.523727263225182517e-02,1.163724779700630631e-02
3.835999999999999854e+00,3.752551998631954017e-02,7.546300712176712278e-03,1.518751678742638958e-02,1.166985781796196428e-02
3.837000000000000188e+00,3.735880065695568186e-02,7.561127683174221140e-03,1.513513720097142690e-02,1.170395452160515916e-02
3.838000000000000078e+00,3.719119587789717490e-02,7.576372340867935061e-03,1.508026114737927303e-02,1.173943298760543250e-02
3.838999999999999968e+00,3.702239007149744909e-02,7.592006730805006022e-03,1.502301057812897335e-02,1.177617625645059618e-02
3.839999999999999858e+00,3.685203993036597486e-02,7.607997226682788883e-03,1.496350823247845699e-02,1.181405828708121178e-02
3.841000000000000192e+00,3.667979883130075697e-02,7.624302500347982132e-03,1.490188142867704402e-02,1.185295042665019012e-02
3.842000000000000082e+00,3.650533805204825982e-02,7.640872983508639922e-03,1.483825402908980039e-02,1.189272794741326987e-02
3.842999999999999972e+00,3.632834067984338361e-02,7.657651722408715007e-03,1.477273373269240124e-02,1.193327070813738136e-02
3.843999999999999861e+00,3.614848465724172788e-02,7.674578306903438035e-03,1.470540864563227995e-02,1.197445737782855922e-02
3.845000000000000195e+00,3.596544847431678432e-02,7.691594562732700230e-03,1.463635213259073878e-02,1.201616089932149717e-02
3.846000000000000085e+00,3.577894141954968826e-02,7.708646635229661828e-03,1.456562506630971511e-02,1.205824943819384758e-02
3.846999999999999975e+00,3.558874434012432308e-02,7.725683500453525525e-03,1.449327346937022420e-02,1.210058930447749544e-02
3.847999999999999865e+00,3.539474988976920589e-02,7.742655048822437609e-03,1.441932903081458682e-02,1.214304860588498979e-02
3.849000000000000199e+00,3.519698453504846447e-02,7.759510197448260711e-03,1.434381477213221567e-02,1.218550334862422181e-02
3.850000000000000089e+00,3.499560794009059367e-02,7.776196424098718793e-03,1.426675136764720894e-02,1.222783966031807702e-02
3.850999999999999979e+00,3.479089653663261505e-02,7.792661276969293192e-03,1.418815971025445301e-02,1.226994610197885277e-02
3.851999999999999869e+00,3.458320863086053465e-02,7.808856312301267616e-03,1.410805940199179494e-02,1.231170213724714323e-02
3.853000000000000203e+00,3.437293873966951879e-02,7.824741330950622450e-03,1.402646831524425111e-02,1.235297133964964947e-02
3.854000000000000092e+00,3.416047784046907093e-02,7.840281606307824419e-03,1.394340735236917345e-02,1.239360304705735237e-02
3.854999999999999982e+00,3.394619563858231048e-02,7.855441593633685077e-03,1.385891074555954845e-02,1.243344061120006151e-02
3.855999999999999872e+00,3.373045596024370346e-02,7.870185221378432974e-03,1.377303755422547467e-02,1.247232958356990842e-02
3.857000000000000206e+00,3.351364462248525994e-02,7.884477988099261245e-03,1.368587333973722044e-02,1.251012084844427621e-02
3.858000000000000096e+00,3.329617636518399787e-02,7.898283278503101523e-03,1.359751850646814461e-02,1.254666888210808316e-02
